Time [s],Lmtc [m],STIM [ ],Fsee [N],Gamma [ ],Lcerel [ ]
0.0,0.021958635741730362,0.9999998185320447,1.8226911341145582,0.10202046902340096,1.2832719325583501
0.0020924685220571463,0.02193380068772215,0.9999997734101848,2.694794388930813,0.13401211653437578,1.2797665387130777
0.004184937044114293,0.021881912709384468,0.9999997065345787,3.411919367062357,0.16486401962413227,1.2749526996144083
0.006277405566171439,0.021815569321860476,0.9999996220307883,3.954510852628613,0.19461678235095406,1.2695527240729814
0.008369874088228585,0.021741203581379653,0.9999995236674695,4.35827377903998,0.22330956234928576,1.2638699550206682
0.010462342610285731,0.021662382237122975,0.9999994149492796,4.666676383773203,0.2509801223476927,1.2580481633617944
0.012554811132342877,0.021581099605070025,0.9999992990015543,4.912095089628602,0.27766487985473776,1.2521614803622632
0.014647279654400023,0.021498493259714098,0.9999991785030555,5.115627788645565,0.303398955070628,1.2462507036295072
0.01673974817645717,0.021415229687431814,0.9999990556773194,5.290546059071918,0.32821621708955223,1.2403393607554147
0.018832216698514318,0.0213317097233852,0.9999989323214605,5.44521347228421,0.3521493284556939,1.2344414279019313
0.020924685220571466,0.0212481795679062,0.9999988098535578,5.584990805062466,0.37522978813290636,1.2285653128856329
0.023017153742628613,0.021164792442199584,0.9999986893662445,5.7133940268812315,0.3974879729452262,1.22271603791424
0.02510962226468576,0.02108164394378146,0.9999985716793879,5.832787415422561,0.41895317754292666,1.2168964972992684
0.02720209078674291,0.020998792986656245,0.9999984573882386,5.944801185648115,0.43965365294660597,1.2111082131522055
0.029294559308800056,0.020916274589306942,0.9999983469055593,6.050587158120449,0.4596166437198085,1.2053518056034536
0.0313870278308572,0.02083410790622583,0.9999982404974567,6.150978377383855,0.47886842381882694,1.1996272940624215
0.03347949635291435,0.02075230140059585,0.9999981383132707,6.246590854580151,0.49743433116658603,1.1939342949890384
0.035571964874971496,0.02067085625066737,0.9999980404101612,6.337889772077722,0.5153388009958522,1.1882721543750547
0.03766443339702864,0.020589768636987887,0.9999979467731243,6.425233430778171,0.5326053980054244,1.1826400379671482
0.03975690191908579,0.02050903130413163,0.9999978573311551,6.508902981428474,0.5492568473714362,1.1770369935258715
0.04184937044114294,0.020428634642317624,0.9999977719702112,6.5891229020333375,0.5653150646544141,1.1714619942200235
0.043941838963200086,0.020348567445367692,0.9999976905435447,6.666075341432051,0.5808011846413221,1.1659139690809404
0.046034307485257234,0.020268817446827785,0.9999976128798878,6.7399103269065455,0.5957355891604402,1.1603918244515947
0.04812677600731438,0.020189371701779125,0.9999975387898938,6.81075313756372,0.6101379339055937,1.154894459090644
0.05021924452937153,0.020110216859893535,0.9999974680711635,6.878709705783337,0.6240271743049659,1.149420774758309
0.05231171305142868,0.020031339360946,0.9999974005121277,6.943870626905773,0.6374215904684798,1.1439696835563793
0.054404181573485824,0.019952725574475746,0.9999973358950027,7.006314173304546,0.6503388112465373,1.1385401129195234
0.05649665009554297,0.019874361898863414,0.9999972739979949,7.06610858711023,0.6627958374317389,1.1331310088975182
0.05858911861760012,0.019796234830696022,0.9999972145968925,7.1233138439703065,0.6748090641340942,1.1277413381888581
0.06068158713965727,0.019718331012241675,0.9999971574661582,7.177983024467938,0.6863943023591418,1.1223700892600184
0.06277405566171441,0.019640637262714592,0.9999971023796076,7.230163391360011,0.6975667998173593,1.1170162727948059
0.06486652418377156,0.019563140597489825,0.9999970491107423,7.279897243940979,0.7083412609922396,1.111678921653629
0.06695899270582871,0.01948582823833557,0.9999969974327917,7.3272226018751185,0.7187318664934265,1.10635709047563
0.06905146122788586,0.01940868761693961,0.9999969471184995,7.372173757300539,0.7287522917203708,1.101049855022316
0.071143929749943,0.019331706373428174,0.9999968979396849,7.414781724243016,0.7384157248610647,1.0957563113360338
0.07323639827200015,0.019254872351149168,0.9999968496665957,7.455074607264289,0.7477348842495309,1.0904755747678707
0.0753288667940573,0.019178173588674994,0.9999968020670624,7.493077906040144,0.756722035104909,1.085206778915539
0.07742133531611445,0.019101598309743523,0.9999967549054567,7.5288147686844304,0.7653890056741567,1.0799490745012883
0.0795138038381716,0.019025134911677455,0.9999967079414449,7.562306203733284,0.7737472027996127,1.0747016282119484
0.08160627236022874,0.01894877195268727,0.9999966609285271,7.59357125851565,0.7818076269319019,1.0694636215171782
0.08369874088228589,0.01887249808667677,0.9999966136123362,7.6226240442386315,0.7895808866079311,1.064234249477426
0.08579120940434304,0.01879629922148634,0.9999965657286681,7.649302524652828,0.7970772124130303,1.0590127195496006
0.08788367792640019,0.01872016264889083,0.9999965170012031,7.673518731990198,0.8043064704456058,1.0537982503957615
0.08997614644845733,0.018644077465829387,0.999996467138863,7.69528618438216,0.8112781753020122,1.048590070698069
0.09206861497051448,0.01856803285097089,0.9999964158327399,7.714616833197874,0.8180015025987329,1.0433874179816338
0.09416108349257163,0.0184920180496528,0.9999963627525087,7.731521133802651,0.8244853010483303,1.0381895374456445
0.09625355201462878,0.018416022358631753,0.9999963075422172,7.746008105979651,0.8307381041050479,1.0329956808021856
0.09834602053668592,0.018340035110657498,0.9999962498153186,7.758085385324428,0.8367681411953705,1.0278051051213508
0.10043848905874307,0.01826404565886731,0.9999961891487714,7.7677592666806685,0.8425833485483082,1.022617071680664
0.10253095758080022,0.01818804336098493,0.9999961250759892,7.7750347404902165,0.848191379639628,1.0174308448162586
0.10462342610285737,0.0181120175632981,0.9999960570783581,7.779915522770305,0.8535996152637405,1.012245690772862
0.10671589462491451,0.018035957584379505,0.9999959845749566,7.782404079298911,0.8588151732464663,1.0070608765492282
0.10880836314697166,0.017959852862253555,0.9999959069102162,7.782511650857955,0.8638449178114033,1.0018756687353223
0.11090083166902881,0.017883693532266605,0.9999958233447439,7.780284380294361,0.8686954686121651,0.9966893437355278
0.11299330019108596,0.01780746667994357,0.9999957330448667,7.7754243134324765,0.8733732094425113,0.9915013551304932
0.1150857687131431,0.017731165366036288,0.9999956350527619,7.767896345280938,0.8778842966357931,0.9863112720723303
0.11717823723520025,0.017654783157809883,0.9999955282549423,7.757697741058625,0.8822346671640923,0.9811186636783349
0.1192707057572574,0.01757831353504394,0.9999954113461615,7.744824918176147,0.8864300464477002,0.9759230956149485
0.12136317427931455,0.017501749883812263,0.9999952827831357,7.729273446621111,0.8904759558850844,0.9707241296989192
0.1234556428013717,0.01742508548989245,0.9999951407244629,7.71103804724941,0.8943777201129441,0.9655213234823659
0.12554811132342883,0.01734831353179202,0.9999949829516691,7.690112588062444,0.898140474005474,0.9603142298209981
0.12764057984548596,0.01727142707337455,0.9999948067640538,7.666490078527644,0.901769169421462,0.9551023964246006
0.1297330483675431,0.017194419056065374,0.9999946088365818,7.640162661979685,0.9052685817072622,0.9498853653887227
0.13182551688960023,0.01711728229061332,0.9999943850246957,7.611121606121953,0.9086433159630315,0.944662672706382
0.13391798541165736,0.01704000944838082,0.9999941300913636,7.579357291630973,0.9118978130787678,0.9394338477584155
0.1360104539337145,0.016962593052131093,0.9999938373176109,7.544859198851255,0.9150363555455859,0.9341984127809575
0.13810292245577163,0.016885025466277112,0.9999934979340408,7.507615892552989,0.9180630730460818,0.9289558823083679
0.14019539097782877,0.016807298886552476,0.999993100269348,7.467615004710484,0.9209819478252778,0.9237057625897324
0.1422878594998859,0.01672940532905987,0.9999926284365515,7.42484321524474,0.9237968198398916,0.9184475509768931
0.14438032802194303,0.01665133661864745,0.9999920602349621,7.379286230658134,0.9265113916773505,0.9131807352817506
0.14647279654400017,0.016573084376557905,0.9999913636612925,7.330928760472716,0.9291292332248112,0.9079047931003551
0.1485652650660573,0.016494640007288848,0.9999904908205048,7.279754491364342,0.9316537860475504,0.9026191911010919
0.15065773358811443,0.016415994684595994,0.9999893666546907,7.225746058860372,0.9340883673944337,0.8973233842739802
0.15275020211017157,0.01633713933656286,0.9999878664946077,7.16888501643303,0.9364361736591437,0.8920168151378504
0.1548426706322287,0.016258064629651715,0.9999857669414581,7.109151801760161,0.938700282918351,0.8866989129018654
0.15693513915428584,0.01617876095163972,0.9999826239864544,7.046525699802207,0.9408836556295752,0.8813690925775625
0.15902760767634297,0.01609921839333114,0.999977411389345,6.980984802056489,0.9429891309620857,0.8760267540373747
0.1611200761984001,0.01601942672891976,0.999967100806937,6.912505960665435,0.945019410375425,0.8706712810156864
0.16321254472045724,0.015939375394915016,0.9999371306547379,6.841064737239812,0.9469769911987637,0.8653020400502613
0.16530501324251437,0.0158591084486461,0.11946972269717239,6.769768602699841,0.9488637630211302,0.859918379377558
0.1673974817645715,0.015778204588700454,1.9723997291182115e-05,6.672128743668307,0.8829680430087519,0.8545234633498718
0.16948995028662864,0.0156969497186061,7.903339122998865e-06,6.560685435327678,0.8128174618179405,0.8491222455493672
0.17158241880868577,0.015615389071460768,4.194880533149824e-06,6.436315083840246,0.7482394950630566,0.8437171844744662
0.1736748873307429,0.015533504156797467,2.4951515210396327e-06,6.296313271862821,0.6887920359025295,0.8383108675622459
0.17576735585280004,0.015451276459182747,1.5791106762640985e-06,6.137458179434449,0.6340676185263668,0.8329067775147966
0.17785982437485717,0.015368689930086301,1.0397885826457668e-06,5.956058601197158,0.5836910534753241,0.8275095257917308
0.1799522928969143,0.015285735846348398,7.044424575286902e-07,5.748123067046673,0.5373169282396836,0.8221251386501095
0.18204476141897144,0.015202421398219972,4.881628052062902e-07,5.509712653714617,0.49462726005186886,0.8167614056525213
0.18413722994102857,0.015118783640579423,3.44982571373839e-07,5.237534166037877,0.4553293235366687,0.811428302601184
0.1862296984630857,0.015034910307901187,2.482935012141935e-07,4.929787765706584,0.4191536470730366,0.8061385038141397
0.18832216698514284,0.014950968046930507,1.819369687634996e-07,4.587185497376914,0.38585216679158124,0.8009080027164118
0.19041463550719998,0.01486723657545805,1.3575011174548795e-07,4.2139099633694,0.35519652653148637,0.7957568648185399
0.1925071040292571,0.014784144508409217,1.031722546663521e-07,3.8181459246439933,0.3269765125141701,0.7907101444566285
0.19459957255131424,0.014702300893498384,7.988340357599097e-08,3.411815643746654,0.3009986121939567,0.7857990191373101
0.19669204107337138,0.014622519567962596,6.299376718850954e-08,3.009399342789159,0.2770846875017385,0.7810623042782153
0.1987845095954285,0.014545845574608075,5.0544205586287495e-08,2.6261435895031164,0.2550707534367365,0.7765489643363899
0.20087697811748564,0.01447361099937089,4.119493313946828e-08,2.2760429322326794,0.23480585366102133,0.772323518170843
0.20296944663954278,0.014407541961081207,3.4039843477760826e-08,1.9691981228488016,0.21615102540475709,0.768477657463801
0.2050619151615999,0.014349840108956851,2.8495778908197558e-08,1.7080120083569692,0.19897834659630065,0.7651458582060899
0.20715438368365705,0.014302929405761933,2.419198617737702e-08,1.4857792652145199,0.1831700586902359,0.7624970926446253
0.20924685220571418,0.014278938892164805,1.1817921303537635e-07,1.5675307220852739,0.16861775917906363,0.7606567885393113
0.20976996933622846,0.014275829328088092,1.1555362607686795e-07,1.483409095275848,0.16516406110276202,0.7606567885393085
0.21029308646674275,0.014272783992398903,1.1298182831292095e-07,1.4032704238138827,0.16178110727780945,0.7606567966216894
0.21081620359725703,0.014269804447842371,1.1046271195674317e-07,1.3270161130756521,0.15846744860559112,0.760656806038203
0.2113393207277713,0.01426689157038012,1.0799519839727195e-07,1.2545264468537152,0.15522166567028264,0.7606568172079442
0.2118624378582856,0.014264046056460701,1.0557823142024516e-07,1.1856780845593793,0.152042368130839,0.7606568307779742
0.21238555498879988,0.014261268472200304,1.0321077706847865e-07,1.12034588209532,0.14892819412543795,0.7606568478251075
0.21290867211931416,0.014258559385440964,1.0089182408631125e-07,1.0584062619882375,0.14587780968812217,0.7606568703442371
0.21343178924982845,0.014255919949921064,9.862038701832087e-08,0.9997496672911952,0.14288990817739078,0.7606569027042464
0.21395490638034273,0.014253359163257106,9.639554054127185e-08,0.944431508907126,0.13996320971649587,0.7606569578686717
0.214478023510857,0.014251455521341171,9.421869285134972e-08,0.9042903472175632,0.13709646064520403,0.7606571257742926
0.2150011406413713,0.014250361850135885,9.209341697655408e-08,0.8800081032146908,0.1342884329828346,0.7606625736845949
0.21552425777188558,0.014249605839465412,9.002114006637651e-08,0.8594225196713007,0.13153792390229307,0.760679722051348
0.21604737490239986,0.014249239554906134,8.800182171193087e-08,0.8427984534017101,0.1288437552147905,0.760710812958149
0.21657049203291415,0.014249360891127813,8.603704922260206e-08,0.8309021677178124,0.12620477286513096,0.7607595267885574
0.21709360916342843,0.01425013930040724,8.413188137103904e-08,0.8250531569598933,0.12361984643740137,0.7608325532262283
0.2176167262939427,0.014251873161744009,8.230025612722983e-08,0.8271587355095473,0.12108786867082384,0.760943477590858
0.218139843424457,0.01425499642505923,8.057953669568316e-08,0.8364734201096121,0.11860775498563626,0.7611245032125279
0.21866296055497128,0.014260101183139792,7.903369110587524e-08,0.8408763701735001,0.11617844301898232,0.7614573417411115
0.21918607768548556,0.014268710175132945,7.770627636636318e-08,0.8349509653013597,0.11379889217037335,0.762064013988746
0.21970919481599985,0.014281934505348589,7.659285514143376e-08,0.8246789260986273,0.11146808315549779,0.7630000726824424
0.22023231194651413,0.014299986452033172,7.566857038397837e-08,0.8135991961473612,0.10918501756860517,0.7642680450263767
0.22075542907702841,0.014322770874351125,7.490829862582186e-08,0.8030296810795583,0.10694871745441921,0.7658569344998869
0.2212785462075427,0.014350111640575597,7.429069531812417e-08,0.7934331723970139,0.10475822488923163,0.7677530949743826
0.22180166333805698,0.014381815044492076,7.379830575455973e-08,0.7849417127342715,0.10261260157066082,0.7699428080761078
0.22232478046857126,0.014417689405176959,7.341699584441154e-08,0.7775513351594895,0.10051092841581492,0.7724129685860438
0.22284789759908555,0.014457551565085033,7.313534964454465e-08,0.771201029985371,0.09845230516767482,0.775151260697211
0.22337101472959983,0.014501228888847605,7.29441576647082e-08,0.7658073993921894,0.09643585000952762,0.7781461749518329
0.22389413186011412,0.014548559556304096,7.283600617414594e-08,0.7612806878977003,0.09446069918728704,0.7813869713351294
0.2244172489906284,0.014599392177543462,7.280495324103824e-08,0.7575323603153492,0.09252600663954197,0.7848636248858482
0.22494036612114268,0.014653585145563855,7.284627434198815e-08,0.7544786152156353,0.09063094363517611,0.7885667675368578
0.22546348325165697,0.014711005906002899,7.295626261682758e-08,0.7520418650492058,0.08877469841840584,0.7924876315853377
0.22598660038217125,0.014771530224242399,7.313207187281111e-08,0.7501511774619662,0.08695647586108383,0.7966179968694148
0.22650971751268553,0.014835041485744856,7.337159314408463e-08,0.7487421863628808,0.08517549712212266,0.8009501423200023
0.22703283464319982,0.014901430044573602,7.367335777908335e-08,0.7477567411561874,0.08343099931389149,0.8054768019415472
0.2275559517737141,0.01497059262491217,7.403646170251717e-08,0.747142438657096,0.08172223517544434,0.810191125008891
0.22807906890422838,0.015042431775438452,7.446050677605278e-08,0.7468521160523987,0.08004847275244026,0.8150866401608771
0.22860218603474267,0.015116855374033514,7.494555615572769e-08,0.7468433469909314,0.07840899508361875,0.8201572230400088
0.22912530316525695,0.015193776179254565,7.549210129061433e-08,0.7470779626207018,0.07680309989369632,0.8253970671315449
0.22964842029577123,0.015273111424641236,7.610103878498083e-08,0.7475216079470697,0.07523009929255306,0.8308006574756535
0.23017153742628552,0.015354782451922152,7.67736557994093e-08,0.7481433374219791,0.0736893194805805,0.8363627469529898
0.2306946545567998,0.015438714379367098,7.751162302825251e-08,0.7489152500671894,0.07218010046006444,0.8420783348724894
0.23121777168731408,0.0155248358017938,7.831699458646935e-08,0.7498121624873626,0.07070179575247999,0.8479426476179844
0.23174088881782837,0.015613078519033348,7.91922143874324e-08,0.7508113171507843,0.06925377212157709,0.8539511211362422
0.23226400594834265,0.015703377289957497,8.01401288097086e-08,0.7518921229024472,0.06783540930213867,0.8600993850728283
0.23278712307885693,0.0157956696094581,8.116400564715149e-08,0.7530359245858244,0.06644609973429483,0.866383248383645
0.23331024020937122,0.015889895506037276,8.226755952309693e-08,0.7542257987431753,0.0650852483032797,0.8727986862691764
0.2338333573398855,0.015985997357912732,8.345498413510154e-08,0.7554463725530227,0.06375227208451964,0.879341828295548
0.23435647447039978,0.016083919725765707,8.473099189013804e-08,0.7566836633969164,0.06244660009394355,0.8860089475816271
0.23487959160091407,0.016183609200459796,8.610086170025162e-08,0.7579249366948789,0.06116767304340852,0.8927964509448071
0.23540270873142835,0.016285014264238434,8.757049594491488e-08,0.7591585798930081,0.059914943101136216,0.899700869909935
0.23592582586194263,0.016388085164069484,8.914648787960135e-08,0.760373990717882,0.058687873657057785,0.9067188524963404
0.23644894299245692,0.0164927737959481,9.083620109344239e-08,0.761561478025666,0.05748593909296632,0.913847155707151
0.2369720601229712,0.0165990335990961,9.264786300828707e-08,0.7627121737678731,0.05630862455737948,0.9210826386532753
0.23749517725348548,0.01670681945910918,9.459067488729369e-08,0.7638179547696423,0.05515542574501545,0.9284222562516712
0.23801829438399977,0.016816087619203498,9.667494140933024e-08,0.7648713731716764,0.05402584868078825,0.9358630534439142
0.23854141151451405,0.016926795598802287,9.891222359980594e-08,0.7658655945243987,0.052919409508230444,0.9434021598867666
0.23906452864502833,0.017038902118782354,1.0131551983366953e-07,0.7667943426442703,0.05183563428225263,0.951036785071469
0.23958764577554262,0.017152367032770705,1.0389948080151209e-07,0.7676518504491252,0.05077405876615191,0.9587642138329457
0.2401107629060569,0.01726715126394415,1.0668066583469697e-07,0.7684328160832088,0.0497342282327825,0.9665818022140811
0.24063388003657118,0.01738321674684018,1.0967784992827182e-07,0.7691323637251185,0.04871569726980464,0.9744869736537426
0.24115699716708547,0.017500526373737283,1.1291239332903266e-07,0.7697460085440605,0.04771802958892877,0.9824772154703695
0.24168011429759975,0.017619043945206667,1.1640868887501169e-07,0.7702696253332848,0.04674079783907476,0.9905500756157329
0.24220323142811404,0.017738734124079596,1.2019470651548312e-07,0.7706994127631122,0.04578358342336745,0.9987031596759685
0.24272634855862832,0.017859562386895643,1.2430265859047583e-07,0.7710317792622321,0.04484597631989187,1.0069341279776498
0.2432494656891426,0.017981494979751024,1.2876982172715687e-07,0.771263409233512,0.04392757490613395,1.0152406923538786
0.24377258281965689,0.018104498895954835,1.3363956243267732e-07,0.7713913684934769,0.04302798578703367,1.0236206142569841
0.24429569995017117,0.018228541841221364,1.3896262035708833e-07,0.7714129694813595,0.04214682362658191,1.032071702872103
0.24481881708068545,0.018353592202766545,1.447987302916628e-07,0.7713257527499465,0.04128371098289252,1.040591813083984
