Time [s],Lmtc [m],STIM [ ],Fsee [N],Gamma [ ],Lcerel [ ]
0.0,0.020514530485810516,0.9999999612407742,1.4100868858647917,0.08753220874378186,1.1858951101913782
0.001264288492142396,0.02052926029833297,0.9999999600791886,1.9240937128146742,0.10731454966750437,1.1856567623438283
0.002528576984284792,0.020526709268949176,0.9999999561897097,2.4963308542676654,0.126668008546541,1.1842832615532835
0.003792865476427188,0.020509870139463388,0.9999999502147799,3.0345132086276347,0.14560188350330444,1.1821282253170557
0.005057153968569584,0.020483412203924155,0.9999999424540821,3.5211876759105363,0.16412527109043362,1.1794889767342933
0.00632144246071198,0.020450105915238506,0.9999999330827815,3.9464799664019146,0.18224707065340395,1.1765349565805585
0.007585730952854376,0.020411784670405476,0.9999999222459163,4.309195884798978,0.1999759886032879,1.1733686918041586
0.008850019444996773,0.020369757171416255,0.9999999100738949,4.61469503876974,0.2173205425989281,1.1700554257219582
0.010114307937139168,0.020324975185994576,0.9999998966866899,4.871153400981197,0.23428906563877686,1.1666380915294612
0.011378596429281563,0.020278134037786364,0.9999998821948082,5.087086180158278,0.2508897100641155,1.163145760301115
0.012642884921423958,0.020229743472822265,0.9999998666990836,5.270164192360959,0.26713045147550407,1.1595986326069088
0.013907173413566353,0.020180179151114655,0.9999998502902213,5.4268245970637246,0.2830190925643185,1.1560110737918015
0.015171461905708748,0.020129719861540708,0.9999998330484615,5.562270049521526,0.2985632668612099,1.1523935108998251
0.016435750397851143,0.02007857419591671,0.9999998150434533,5.680622739261077,0.31377044240328933,1.1487536484491747
0.01770003888999354,0.020026899600523486,0.9999997963343225,5.7851185005415555,0.32864792532180515,1.1450972666582924
0.018964327382135934,0.01997481597100515,0.9999997769698841,5.878289339689846,0.3432028633520416,1.1414287585227127
0.02022861587427833,0.01992241538842674,0.9999997569889408,5.962117940879212,0.3574422492671267,1.1377514987221056
0.021492904366420724,0.01986976913969274,0.9999997364206183,6.038162083173816,0.3713729242374015,1.1340681020967633
0.02275719285856312,0.0198169328003595,0.9999997152846986,6.107650860892436,0.3850015811169646,1.13038060838088
0.024021481350705514,0.019763949962460104,0.9999996935919164,6.171559561305684,0.3983347676589736,1.1266906156873926
0.02528576984284791,0.019710855002896627,0.9999996713441981,6.230667585702881,0.4113788896612424,1.1229993789814376
0.026550058334990304,0.019657675139199225,0.9999996485348196,6.285601624407173,0.42414021404364954,1.1193078843211195
0.0278143468271327,0.01960443197198993,0.9999996251484713,6.336868533379758,0.43662487185882876,1.115616904801014
0.029078635319275094,0.019551142660369888,0.9999996011612116,6.384880959979618,0.4488388612375923,1.111927043063664
0.03034292381141749,0.019497820824028355,0.9999995765402971,6.4299770686991105,0.46078805027049463,1.1082387642515092
0.03160721230355989,0.019444477240076974,0.9999995512438736,6.472435701097908,0.4724781798269182,1.1045524218166867
0.03287150079570229,0.019391120386541144,0.9999995252205092,6.5124881817491085,0.4839148663130392,1.1008682778546524
0.034135789287844685,0.019337756869925858,0.9999994984085484,6.55032757030449,0.4951036043699858,1.0971865192724886
0.035400077779987084,0.019284391763329516,0.999999470735261,6.5861158945645135,0.5060497695134888,1.093507270763554
0.03666436627212948,0.019231028875229254,0.9999994421157509,6.619989832448906,0.5167586207162845,1.0898306052639262
0.03792865476427188,0.019177670965151265,0.9999994124515807,6.652065257385125,0.5272353029345107,1.0861565524035894
0.03919294325641428,0.01912431991832031,0.9999993816290588,6.682440911142495,0.5374848495792938,1.082485105394298
0.04045723174855668,0.01907097688760853,0.999999349517115,6.711201347315841,0.5475121849347232,1.0788162267025156
0.04172152024069908,0.019017642409168683,0.999999315964677,6.738419285295292,0.5573221265233506,1.0751498527399679
0.042985808732841475,0.018964316497015334,0.9999992807974246,6.764157511181024,0.5669193874203524,1.0714858977412065
0.044250097224983874,0.018910998720339026,0.9999992438137688,6.788470405119979,0.5763085785174491,1.0678242569720493
0.04551438571712627,0.018857688201517328,0.9999992047798507,6.811401449371818,0.5854942107376558,1.0641648093724794
0.04677867420926867,0.018804382159241437,0.9999991634232919,6.832897837826684,0.5944806972019085,1.060507419709012
0.04804296270141107,0.018751078497293378,0.9999991194253421,6.8529564057408905,0.6032723553485829,1.0568519406578023
0.04930725119355347,0.0186977755531458,0.9999990724109067,6.871607281382347,0.6118734090068901,1.0531982155303186
0.05057153968569587,0.018644471471466226,0.999999021935783,6.888879203966586,0.6202879904251077,1.0495460769269858
0.051835828177838265,0.018591164202812673,0.9999989674702252,6.904796868525675,0.6285201422545573,1.045895349732346
0.053100116669980664,0.018537851535496006,0.9999989083774937,6.919382383349483,0.6365738194902194,1.0422458514923594
0.05436440516212306,0.018484531118809974,0.9999988438855115,6.932655702307786,0.6444528913688039,1.0385973934337032
0.05562869365426546,0.018431200450553808,0.9999987730489525,6.944633066970254,0.6521611432250618,1.0349497814081121
0.05689298214640786,0.018377856935415868,0.9999986946977635,6.955330835407498,0.6597022783070245,1.0313028153085235
0.05815727063855026,0.01832449787031534,0.9999986073661133,6.964762882254167,0.6670799195507784,1.0276562911111147
0.05942155913069266,0.018271120416700495,0.9999985091924908,6.9729391296032395,0.6742976113152168,1.024010000686885
0.060685847622835055,0.01821772164225698,0.9999983977763324,6.97986921737696,0.68135882107702,1.0203637302915363
0.061950136114977454,0.01816429856474696,0.9999982699674119,6.985564099524144,0.6882669410857769,1.0167172616590647
0.06321442460711985,0.018110848128793225,0.9999981215480414,6.990032873074859,0.6950252899786606,1.0130703741397078
0.06447871309926224,0.018057367209031464,0.999997946738561,6.9932832887756184,0.7016371143532065,1.0094228442978166
0.06574300159140464,0.018003852587141083,0.9999977373998273,6.995320522688432,0.7081055902952703,1.0057744457791313
0.06700729008354704,0.01795030101342297,0.9999974816915144,6.99615172435394,0.714433824856571,1.0021249481478474
0.06827157857568944,0.01789670979965845,0.9999971617010981,6.995818505149751,0.7206248574711157,0.9984741190685343
0.06953586706783184,0.017843073767165367,0.9999967489887835,6.994180577550808,0.7266816612895058,0.994821770795778
0.07080015555997424,0.017789390277980384,0.9999961955056517,6.991196581234024,0.7326071443877393,0.9911677727940819
0.07206444405211664,0.01773565746964414,0.9999954131553127,6.986868526416477,0.7384041507529064,0.9875119968209723
0.07332873254425903,0.017681873396221078,0.9999942210826844,6.981196491093138,0.7440754608044174,0.983854311676691
0.07459302103640143,0.017628036116012772,0.9999921799595561,6.974184548873338,0.7496237907611607,0.9801945822042849
0.07585730952854383,0.01757414364027539,0.9999878734849563,6.965834873661051,0.7550517884297204,0.97653267273161
0.07712159802068623,0.017520193855293777,0.9999727913644972,6.956144131437393,0.7603620135069584,0.9728684460238193
0.07838588651282863,0.017466230338880052,3.908546202415725e-05,6.947751876841212,0.7655567856936842,0.9692017594792307
0.07965017500497103,0.017411839443346535,6.160928591048885e-06,6.9152366960421325,0.7282082166789555,0.9655344677451395
0.08091446349711343,0.017357382242405475,2.9480460991253783e-06,6.877659576198355,0.6926802510812821,0.9618687512162827
0.08217875198925582,0.017302853061118933,1.7658755858040343e-06,6.834391334873149,0.6588855125675886,0.9582050218106167
0.08344304048139822,0.01724824593605647,1.1682972022398854e-06,6.784714537609327,0.6267395373135615,0.9545437954547111
0.08470732897354062,0.017193554721847127,8.17354175537873e-07,6.72781999301862,0.5961619118695624,0.9508857097533417
0.08597161746568302,0.017138773241890948,5.925299239563229e-07,6.66280451987712,0.5670761296117052,0.9472315449518031
0.08723590595782542,0.01708389555866984,4.401763377014683e-07,6.588674919191568,0.539409410739287,0.9435822478038053
0.08850019444996782,0.01702891636245754,3.3283980954647437e-07,6.504356881144134,0.5130925237082022,0.9399389601096291
0.08976448294211022,0.01697383155939817,2.5505408495214607e-07,6.408714195271795,0.4880596133920584,0.9363030512076603
0.09102877143425261,0.016918639076261944,1.974730565734905e-07,6.300577811828745,0.4642480369340399,0.9326761561334596
0.09229305992639501,0.01686333993981082,1.5414064216893784e-07,6.178788219375327,0.4415982073211819,0.9290602188155632
0.09355734841853741,0.016807939702148292,1.2110086224253465e-07,6.042254180101491,0.42005344445734827,0.9254575403757964
0.09482163691067981,0.016752450376572227,9.563855955795282e-08,5.890034326674846,0.39955983343443735,0.9218708333717921
0.09608592540282221,0.016696892805346662,7.584036887156998e-08,5.721429884573795,0.3800660896813875,0.9183032877209776
0.09735021389496461,0.016641299415974354,6.032869562920411e-08,5.536085018343613,0.3615234306710483,0.9147586452676352
0.098614502387107,0.01658571741848798,4.8094084502165945e-08,5.334095172468164,0.3438854538733998,0.9112412798248777
0.0998787908792494,0.01653021229118793,3.838602105709351e-08,5.1161067437326055,0.32710802065517036,0.9077562863750924
0.1011430793713918,0.016474871634309607,3.063974197883903e-08,4.883406545024967,0.31114914583857806,0.9043095786410745
0.1024073678635342,0.016419808472907707,2.4425961154227614e-08,4.637941709305702,0.295968892644852,0.9009080080602644
0.1036716563556766,0.016365164687558713,1.9415597062738563e-08,4.382324777335713,0.28152927276093126,0.8975594740915599
0.104935944847819,0.01631111343666419,1.5354557053502103e-08,4.119742220266178,0.2677941512801152,0.8942730673881331
0.1062002333399614,0.016257861072911127,1.2045412635041717e-08,3.8538220168907,0.25472915627936227,0.8910592159192569
0.1074645218321038,0.016205648580868058,9.333893713225033e-09,3.588448570881268,0.24230159280735222,0.8879298714135793
0.1087288103242462,0.016154753364914346,7.098827258837139e-09,3.3275558575617508,0.23048036106834943,0.8848987703839903
0.1099930988163886,0.016105492724153847,5.2446181252914036e-09,3.074919297267216,0.21923587859732735,0.8819818526084017
0.11125738730853099,0.016058230640957686,3.6956960650276954e-09,2.8339543578624418,0.2085400062317439,0.8791979591761329
0.11252167580067339,0.01601338860625745,2.3925447727919447e-09,2.607507487646768,0.19836597769483041,0.8765699134283107
0.11378596429281579,0.015971457645715226,1.288947168544455e-09,2.3976166600489055,0.188688332614268,0.8741258728427713
0.11505025278495819,0.015933001019616384,3.4989599804978503e-10,2.205253582538854,0.1794828528086991,0.8719002560733736
0.11631454127710059,0.015898627260732025,-4.5063065403950067e-10,2.0301696592540512,0.1707265016826725,0.8699326239806122
0.11757882976924298,0.01586891077576179,-1.132683778693005e-09,1.8710615556998942,0.16239736657835732,0.8682624112894286
0.11884311826138538,0.01584425839502162,-1.7138348103525528e-09,1.726142805753249,0.15447460393972745,0.8669189778343974
0.12010740675352778,0.015824768959639142,-2.21165765110303e-09,1.5938390228843178,0.14693838715197624,0.8659105936316713
0.12137169524567018,0.015810169577322113,-2.6439234525244435e-09,1.4731302262692436,0.13976985692568694,0.8652191593256662
0.12263598373781258,0.015799878568417032,-3.026984120789478e-09,1.3634117697886388,0.1329510741017146,0.8648046243583184
0.12390027222995498,0.015793155960811878,-3.3740650258138173e-09,1.264134493619952,0.12646497475876253,0.8646160479051246
0.12516456072209736,0.015786376571387203,-3.69771971291715e-09,1.107217271492749,0.12029532751131103,0.8646026204602316
0.12642884921423975,0.015779937041487505,1.8193264663250274e-08,0.9637650546427732,0.11442669289082937,0.8646026136192568
0.12670302226055888,0.01578535738654981,1.7893422964920017e-08,1.0838523302439624,0.11319229453150587,0.864602613619256
0.126977195306878,0.015785691284361372,1.760195015850122e-08,1.077757093111089,0.111971213627382,0.8646435977575855
0.12725136835319714,0.01578627088370566,1.7315691746341854e-08,1.0740348332492629,0.1107633065015456,0.8646942478166907
0.12752554139951627,0.015787155427779254,1.703531068580623e-08,1.0730831258411044,0.10956843102712664,0.8647573695046008
0.1277997144458354,0.015788429679798058,1.6761953691199455e-08,1.0753475881071193,0.10838644661061524,0.8648373900985352
0.12807388749215454,0.015790213999164263,1.649767563769264e-08,1.081107812005142,0.10721721417532432,0.8649417038252094
0.12834806053847367,0.015792643470698565,1.624600257678466e-08,1.0891209390668688,0.10606059614503496,0.8650833005072129
0.1286222335847928,0.015795874130772998,1.6011841197483757e-08,1.0957499758643212,0.10491645642782417,0.8652836819882571
0.12889640663111193,0.015800170101676198,1.579975044876197e-08,1.0977639986070924,0.1037846604000664,0.8655703891707895
0.12917057967743106,0.015805864397486494,1.5612058618736174e-08,1.095365728231877,0.10266507489058879,0.8659654702646606
0.1294447527237502,0.015813187298367285,1.544888390313208e-08,1.0901995986397528,0.10155756816497725,0.866479757310896
0.12971892577006933,0.015822244269608217,1.5309212583304243e-08,1.0835986655430327,0.10046200991005164,0.8671165102977044
0.12999309881638846,0.015833066916769487,1.5191667309503676e-08,1.0763739106285901,0.09937827121852086,0.867875490432188
0.1302672718627076,0.015845650280495914,1.5094842094165172e-08,1.068989983513782,0.09830622457381104,0.8687549813766106
0.13054144490902672,0.015859971781375957,1.501742621358297e-08,1.0617117707269452,0.09724574383506136,0.8697526508841684
0.13081561795534585,0.015876000375778326,1.4958243783543575e-08,1.0546901390382377,0.09619670422228312,0.8708659245021729
0.13108979100166498,0.015893701096351645,1.4916260573181166e-08,1.0480094794738897,0.09515898230167906,0.872092156451166
0.13136396404798412,0.0159130373963572,1.4890578319242668e-08,1.0417143909649282,0.09413245597112152,0.8734287116137981
0.13163813709430325,0.015933972404597742,1.4880424722078949e-08,1.0358250985833222,0.09311700444578701,0.8748730060332067
0.13191231014062238,0.015956469614052296,1.4885142513018775e-08,1.0303466495279077,0.09211250824394555,0.8764225268903613
0.1321864831869415,0.015980493263017245,1.4904178993999595e-08,1.02527456192138,0.09111884917290337,0.8780748418286984
0.13246065623326064,0.016006008542839643,1.4937076592189888e-08,1.0205983848455007,0.09013591031509724,0.8798276025349628
0.13273482927957977,0.016032981704772395,1.4983464594414044e-08,1.0163039905423719,0.0891635760143385,0.8816785451407158
0.1330090023258989,0.01606138010672218,1.5043052060828875e-08,1.0123750753558725,0.08820173186220544,0.8836254888425976
0.13328317537221804,0.016091172223578455,1.51156218491447e-08,1.008794154724059,0.08725026468458245,0.8856663335288016
0.13355734841853717,0.016122327635310376,1.5201025658208633e-08,1.0055432280205319,0.08630906252834458,0.8877990568683267
0.1338315214648563,0.016154817001546265,1.529917999815418e-08,1.0026042235805124,0.08537801464818524,0.8900217111359928
0.13410569451117543,0.016188612028081785,1.541006300206906e-08,0.9999592953814588,0.08445701149358642,0.8923324199357422
0.13437986755749456,0.01622368542880065,1.5533712006082308e-08,0.9975910184181842,0.08354594469592896,0.8947293749216848
0.1346540406038137,0.01626001088525417,1.5670221837626708e-08,0.9954825138562956,0.08264470705574237,0.8972108325783222
0.13492821365013283,0.01629756300535016,1.5819743764581003e-08,0.9936175255659273,0.08175319253009171,0.8997751110945681
0.13520238669645196,0.01633631728210809,1.5982485070594902e-08,0.9919804626012078,0.08087129622010106,0.9024205873530954
0.1354765597427711,0.01637625005308979,1.6158709233690066e-08,0.9905564178151313,0.07999891435861115,0.9051456940456378
0.13575073278909022,0.01641733846090219,1.634873669683225e-08,0.9893311701269591,0.07913594429797018,0.9079489169181422
0.13602490583540935,0.016459560415019614,1.6552946230178724e-08,0.9882911750955485,0.07828228449795671,0.9108287921481167
0.13629907888172849,0.01650289455505844,1.6771776895762734e-08,0.9874235479509612,0.0774378345138325,0.9137839038500492
0.13657325192804762,0.0165473202155842,1.7005730636650735e-08,0.9867160412599658,0.07660249498452448,0.9168128817072286
0.13684742497436675,0.016592817392464824,1.7255375524252714e-08,0.9861570194547298,0.0757761676209342,0.9199143987235491
0.13712159802068588,0.016639366710772707,1.7521349710192883e-08,0.9857354314883198,0.07495875519437323,0.923087169091113
0.137395771067005,0.016686949394205612,1.7804366142767164e-08,0.9854407825235312,0.07415016152512384,0.9263299461683386
0.13766994411332414,0.01673554723598052,1.810521812337099e-08,0.9852631054450695,0.07335029147112257,0.9296415205625731
0.13794411715964328,0.016785142571147514,1.8424785795716623e-08,0.9851929325910991,0.07255905091676644,0.9330207183119824
0.1382182902059624,0.016835718250267195,1.8764043680860153e-08,0.9852212682560705,0.07177634676183961,0.9364663991607867
0.13849246325228154,0.016887257614395846,1.9124069394526554e-08,0.9853395619464167,0.07100208691056004,0.9399774549237765
0.13876663629860067,0.016939744471306042,1.950605371080945e-08,0.985539682628531,0.07023618026074381,0.9435528079341301
0.1390408093449198,0.016993163072891705,1.991131216966048e-08,0.9858138943835328,0.06947853669308708,0.9471914095694983
0.13931498239123893,0.017047498093697176,2.0341298464857236e-08,0.9861548327658011,0.06872906706056336,0.9508922388541954
0.13958915543755807,0.01710273461049651,2.0797619897121205e-08,0.9865554828123051,0.06798768317793548,0.9546543011292924
0.1398633284838772,0.017158858082889413,2.1282055235452798e-08,0.9870091579753852,0.06725429781138086,0.9584766267904062
0.14013750153019633,0.01721585433483947,2.179657540056993e-08,0.9875094802440307,0.06652882466822899,0.9623582700871238
0.14041167457651546,0.017273709537114147,2.2343367472379572e-08,0.9880503616130951,0.06581117838680965,0.9662983079806483
0.1406858476228346,0.017332410190578084,2.29248626315724e-08,0.9886259863216159,0.06510127452641112,0.9702958390580455
0.14096002066915372,0.017391943110279702,2.3543768780486255e-08,0.9892307944082246,0.06439902955734693,0.9743499824971724
0.14123419371547286,0.017452295410301386,2.420310875771388e-08,0.9898594661509253,0.06370436085113,0.9784598770815128
0.141508366761792,0.017513454489322202,2.4906265273784726e-08,0.9905069074636704,0.06301718667075362,0.9826246802611279
0.14178253980811112,0.017575408016832064,2.565703396507841e-08,0.9911682357336257,0.062337426161077146,0.9868435672570944
0.14205671285443025,0.017638143920006642,2.645968631011202e-08,0.9918387683032305,0.061664999339316635,0.9911157302031047
0.14233088590074938,0.01770165037125773,2.7319044594632444e-08,0.992514009863668,0.060999827085638315,0.9954403773368493
0.1426050589470685,0.017765915775971614,2.8240571661698158e-08,0.993189633897326,0.0603418311338544,0.9998167322230713
0.14287923199338765,0.01783092875749677,2.9230478791551576e-08,0.993861412507587,0.05969093406222057,1.0042440329504487
0.14315340503970678,0.017896678147115035,3.029585652019211e-08,0.9945252903354823,0.059047059284333334,1.008721531218471
0.1434275780860259,0.01796315297827493,3.1444834313348524e-08,0.9951774178956341,0.05841013104012768,1.0132484918419344
0.14370175113234504,0.018030342474987554,3.268677626489363e-08,0.9958140842939646,0.05778007438697302,1.017824192171746
0.14397592417866417,0.018098236042289,3.403252286727363e-08,0.9964317062487605,0.057156815190867544,1.0224479214808537
0.1442500972249833,0.018166823257033428,3.54946920596896e-08,0.9970268236251182,0.05654028011773023,1.0271189803525091
0.14452427027130244,0.01823609385923866,3.708805721980579e-08,0.9975960909003022,0.05593039662478994,1.0318366801189467
0.14479844331762157,0.018306037743686745,3.8830026041227535e-08,0.9981362707465409,0.05532709295207151,1.0366003423109094
