Time [s],Lmtc [m],STIM [ ],Fsee [N],Gamma [ ],Lcerel [ ]
0.0,0.020218838445810388,0.9999999608778153,2.0889198285815436,0.11305280647140883,1.1641454350414635
0.0010937882609510202,0.020216062256800366,0.9999999577529527,2.5780779563427596,0.12971317692052464,1.1629589552397541
0.0021875765219020404,0.020202857042661237,0.9999999531367993,3.0435327097890568,0.14606059975581304,1.1611950357914282
0.0032813647828530603,0.020182166749984846,0.999999947222791,3.473400696081517,0.16210095334139804,1.159044311625044
0.004375153043804081,0.020155887216219144,0.9999999401181644,3.859881163517241,0.17784000562614283,1.1566258883897382
0.005468941304755101,0.020125330774999627,0.9999999319046935,4.200400205990934,0.19328341621606554,1.1540163631756877
0.0065627295657061215,0.020091463804004988,0.9999999226515844,4.496178965721619,0.20843673840896756,1.1512677413962193
0.007656517826657142,0.0200550214293021,0.9999999124194718,4.751265571497318,0.22330542119108507,1.148415884278696
0.008750306087608161,0.02001656658865779,0.9999999012621213,4.97080205823679,0.23789481119631195,1.1454862006360929
0.009844094348559181,0.019976530584109406,0.9999998892270401,5.1599881486288135,0.2522101546286514,1.1424970532988539
0.0109378826095102,0.019935246078992205,0.9999998763555514,5.323686479601245,0.2662565991485684,1.1394619116233828
0.01203167087046122,0.01989297029516336,0.9999998626826657,5.466137843989787,0.280039195723911,1.136390864693977
0.01312545913141224,0.01984990183856474,0.9999998482369024,5.59086032914549,0.2935629004460603,1.1332915841574673
0.014219247392363259,0.01980619609086837,0.999999833040112,5.700821828955338,0.30683257631196326,1.1301699305828865
0.015313035653314279,0.019761975548964493,0.9999998171073026,5.798480984272157,0.31985299497268915,1.127030466935127
0.0164068239142653,0.019717337679955815,0.9999998004464707,5.885863125036619,0.3326288384491367,1.123876802223631
0.01750061217521632,0.019672360045249936,0.9999997830584206,5.964592936728503,0.34516470081551154,1.1207118355119046
0.01859440043616734,0.019627103800484158,0.9999997649365542,6.035933269991062,0.357465089851177,1.1175379006088317
0.01968818869711836,0.01958161819516158,0.9999997460666044,6.100940578787871,0.3695344286614728,1.1143568454481192
0.020781976958069378,0.019535943649268816,0.9999997264262864,6.16051865927374,0.38137705726808446,1.111170155617677
0.021875765219020397,0.01949011281627573,0.9999997059848533,6.215383283625322,0.3929972341695311,1.1079790580383473
0.022969553479971417,0.01944415201571264,0.9999996847025295,6.266106657059739,0.4043991378723331,1.1047845524238056
0.024063341740922436,0.019398083056889746,0.9999996625297936,6.3131872084389675,0.4155868683934098,1.1015874416384133
0.025157130001873456,0.019351924046554954,0.9999996394064741,6.3570464845049495,0.42656444873423943,1.0983883860841985
0.026250918262824476,0.019305689815609716,0.9999996152606268,6.3980250707353665,0.4373358263273142,1.0951879341009487
0.027344706523775495,0.0192593925908739,0.9999995900071431,6.436408451529949,0.44790487445540184,1.0919865329468856
0.028438494784726515,0.019213042466558694,0.9999995635460287,6.472437890975025,0.458275393644125,1.0887845455300345
0.029532283045677534,0.01916664784142654,0.999999535760277,6.506321944329146,0.46845111302834663,1.0855822645934194
0.030626071306628554,0.019120215828685,0.9999995065132395,6.538246873208405,0.47843569169285227,1.0823799268343366
0.03171985956757958,0.01907375232256333,0.99999947564537,6.568367491237035,0.48823271998779627,1.079177727731538
0.0328136478285306,0.019027261709934525,0.9999994429701771,6.596787669998985,0.49784572081938105,1.075975824684647
0.03390743608948162,0.018980747068860934,0.9999994082691708,6.623582709451066,0.5072781509162138,1.072774322569323
0.035001224350432646,0.018934210884965764,0.9999993712855028,6.648841065956995,0.5165334020717834,1.0695732716799657
0.03609501261138367,0.01888765532101741,0.9999993317159102,6.672659770105663,0.5256148023634756,1.0663726916113137
0.03718880087233469,0.018841081839605464,0.999999289200433,6.695107924215958,0.534525617348544,1.0631725893638657
0.038282589133285715,0.01879449043610562,0.9999992433091691,6.716180240464298,0.5432690512374175,1.0599729624323213
0.03937637739423674,0.018747881999078096,0.9999991935250289,6.735930602964576,0.5518482480447244,1.056773798802625
0.04047016565518776,0.018701257201279,0.9999991392210235,6.754409110284622,0.5602662927183676,1.0535750772175172
0.041563953916138784,0.018654616319777627,0.9999990796299646,6.771654059341162,0.5685262122469681,1.0503767643960251
0.04265774217708981,0.018607959331550968,0.9999990138034559,6.7876993751117105,0.576630976745935,1.047178812525266
0.04375153043804083,0.0185612859716824,0.9999989405554979,6.802576377153319,0.584583500522365,1.0439811610391005
0.04484531869899185,0.01851459572849155,0.9999988583835392,6.816311502778462,0.5923866431188809,1.0407837389390482
0.045939106959942876,0.01846788774025605,0.9999987653557149,6.828920132967699,0.6000432103363784,1.037586465040278
0.0470328952208939,0.018421160933202778,0.9999986589460896,6.84041806607808,0.607555955235442,1.034389243640786
0.04812668348184492,0.018374414153201738,0.9999985357876137,6.850826551809694,0.6149275791158607,1.0311919674936587
0.049220471742795945,0.018327646242608443,0.9999983912905132,6.860171674856502,0.6221607324730988,1.0279945237766712
0.05031426000374697,0.018280855962386267,0.9999982190320823,6.86847546681785,0.6292580159296338,1.0247967993279852
0.05140804826469799,0.018234041950134724,0.9999980097404186,6.875754254672054,0.6362219811373406,1.0215986797055967
0.052501836525649014,0.018187202666426996,0.9999977495175529,6.8820174311436855,0.6430551316438329,1.0184000469512176
0.05359562478660004,0.018140336457136072,0.9999974165431947,6.887273726810498,0.6497599237091561,1.015200776370861
0.05468941304755106,0.018093441661475296,0.9999969744914502,6.891536745558997,0.6563387670452249,1.0120007373261382
0.05578320130850208,0.01804651665011426,0.9999963580741682,6.894823513496971,0.66279402541771,1.0087997975477294
0.056876989569453106,0.01799955955183194,0.9999954369904139,6.897136027441082,0.669128016965071,1.0055978263548018
0.05797077783040413,0.01795256854913551,0.999993908178425,6.898485924078739,0.6753430138344295,1.002394685559087
0.05906456609135515,0.01790554217654565,0.9999908675512397,6.898905608619629,0.6814412398003716,0.9991902366086698
0.060158354352306175,0.017858477153970806,0.9999818553125595,6.898307256455366,0.6874248598840593,0.9959843599289389
0.0612521426132572,0.01781139790589625,0.3773795268545513,6.898161897694569,0.6932959146672572,0.9927769776330021
0.06234593087420822,0.017764087200649165,7.019624393578945e-06,6.885190585402312,0.6799167663214672,0.9895690218407271
0.06343971913515924,0.017716542605228477,3.1403393163959758e-06,6.857700379086561,0.6511222523179823,0.9863623803776145
0.06453350739611026,0.01766894663299318,1.8600960411669637e-06,6.825152831811024,0.6235470538674546,0.9831583238111785
0.06562729565706128,0.01762129837854474,1.2359168288687915e-06,6.787464619025834,0.5971396416649641,0.9799569335280496
0.0667210839180123,0.017573598394782425,8.741556516299812e-07,6.744346903107009,0.571850586442776,0.9767586450856725
0.06781487217896333,0.01752584135878635,6.429426557668339e-07,6.694965143378603,0.547632535646695,0.9735641626291182
0.06890866043991435,0.01747802399911989,4.856414550802155e-07,6.638661655692524,0.5244401365713292,0.9703741424812269
0.07000244870086537,0.017430141970450126,3.739242312026578e-07,6.57464166896539,0.5022299548504469,0.9671893619633345
0.0710962369618164,0.01738219151229027,2.920725694737903e-07,6.502110683922529,0.48096039441205757,0.9640106752440598
0.07219002522276742,0.01733417074506402,2.3068205773375393e-07,6.420316012081092,0.4605916201586138,0.9608390587610816
0.07328381348371844,0.017286078276501853,1.8379546960978764e-07,6.328420512229161,0.44108548365517825,0.9576756801951011
0.07437760174466947,0.017237914726746018,1.4746726882876197e-07,6.225622043146468,0.4224054518433677,0.9545218687949035
0.07547139000562049,0.017189689981369233,1.1898969444072594e-07,6.11152576858624,0.40451653871354765,0.9513791535532052
0.07656517826657151,0.01714141236613051,9.64500927207694e-08,5.985324896421285,0.3873852398380104,0.9482495573022328
0.07765896652752254,0.017093092395490547,7.846506623807796e-08,5.846289022905804,0.370979469657997,0.9451352681869691
0.07875275478847356,0.017044750867919074,6.401414742458604e-08,5.694214648064923,0.3552685014154272,0.9420386221780309
0.07984654304942458,0.016996417687753212,5.2332106473582813e-08,5.5291252724895985,0.3402229096215429,0.9389623974328369
0.0809403313103756,0.01694813140378321,4.2837127185612506e-08,5.351217045438098,0.32581451495750613,0.9359098537269266
0.08203411957132663,0.01689994241134587,3.508164371406489e-08,5.161052606417381,0.3120163315054803,0.9328846860133736
0.08312790783227765,0.0168519162105679,2.8717923369624705e-08,4.959648152471937,0.29880251621244835,0.9298910968187408
0.08422169609322867,0.01680413120678039,2.34734994236597e-08,4.748240563299944,0.2861483204928395,0.9269339252361618
0.0853154843541797,0.01675668380037859,1.913331984935227e-08,4.528561555377268,0.2740300438797967,0.9240185598368803
0.08640927261513072,0.016709689226821985,1.5526572659176806e-08,4.302699256899583,0.26242498963860983,0.9211511077954931
0.08750306087608174,0.01666327996752729,1.25168281011724e-08,4.072904642465644,0.2513114222594116,0.9183384890629988
0.08859684913703277,0.01661761348909531,9.994583832033852e-09,3.841895269487959,0.2406685267496874,0.9155884046641888
0.08969063739798379,0.016572858258545143,7.871541737550116e-09,3.6119133141919937,0.23047636965047652,0.912909756064621
0.09078442565893481,0.01652921265727779,6.076206989204316e-09,3.3858090444463333,0.22071586170334004,0.9103121489586332
0.09187821391988583,0.016486894420526272,4.550501610427233e-09,3.16593220972916,0.2113687220982363,0.9078068644446161
0.09297200218083686,0.016446148924106237,3.2471751047287707e-09,2.954522328719768,0.20241744423539654,0.905406767339036
0.09406579044178788,0.016407252823102014,2.1278840586971465e-09,2.753462718563583,0.19384526293711338,0.9031269610029221
0.0951595787027389,0.016370519019758608,1.1617955458705453e-09,2.564179629090585,0.18563612304806498,0.9009853562263381
0.09625336696368993,0.016336302304478387,3.2452077883183676e-10,2.3876659570883705,0.17777464936539167,0.8990030985755685
0.09734715522464095,0.016304988073737255,-4.0288474725488184e-10,2.224162536288977,0.17024611784222266,0.8972045725705294
0.09844094348559197,0.016276968405860927,-1.035151013839417e-09,2.0733646040689604,0.16303642801072238,0.8956155766176842
0.099534731746543,0.016252586391336636,-1.5843747562823934e-09,1.9343716348546447,0.15613207657300068,0.8942598427187682
0.10062852000749402,0.016232065268508462,-2.061655666902995e-09,1.806090228576821,0.1495201321104091,0.8931535132428383
0.10172230826844504,0.016215445745653444,-2.4781699350150503e-09,1.6876188718134861,0.1431882108638588,0.8923000422846857
0.10281609652939606,0.016202552078503112,-2.8452479724828754e-09,1.5781450353588142,0.13712445353982275,0.8916880804575739
0.10390988479034709,0.01619302429768841,-3.173634489608987e-09,1.4771815935718304,0.13131750309862655,0.8912930446829664
0.10500367305129811,0.016186388412716107,-3.4725675367144017e-09,1.3843045867561201,0.1257564834834617,0.8910824712550064
0.10609746131224913,0.016180638825695072,-3.75091249261123e-09,1.2618928865804357,0.12043097925028717,0.8910218317189996
0.10719124957320016,0.016174681815275628,-4.015569381980066e-09,1.1195692556121082,0.11533101606037985,0.8910218208343149
0.10828503783415118,0.016169052801205473,-4.269017485950088e-09,0.9929031011516434,0.11044704199911487,0.891021816915806
0.1093788260951022,0.01616374713405148,1.5489279963406314e-08,0.8804720678304735,0.10576990968602024,0.8910218144211732
0.10961837116748452,0.016176643980668492,1.5263893494974667e-08,1.16551210703254,0.10477233253232882,0.8910218144211738
0.10985791623986683,0.016179140413045457,1.506108777903031e-08,1.173284773328743,0.10378416499426042,0.8911695431619763
0.11009746131224915,0.01618234170899108,1.4873581452046539e-08,1.1788932636731801,0.10280531831609993,0.8913715654572323
0.11033700638463147,0.016186477764863854,1.4704670537235235e-08,1.1809667608330188,0.10183570457924929,0.8916474218486972
0.11057655145701378,0.016191778942092273,1.4556026441015145e-08,1.1791481008431213,0.10087523669443106,0.8920138032610537
0.1108160965293961,0.016198412064258122,1.4427877822630643e-08,1.1747302312856078,0.09992382839385071,0.8924783900611939
0.11105564160177842,0.0162064641533029,1.431963668911899e-08,1.1689396430285743,0.09898139422343429,0.893043624076275
0.11129518667416073,0.016215969857216222,1.4230396315961156e-08,1.162415489727655,0.09804784953514553,0.893710051386736
0.11153473174654305,0.016226933096960838,1.4159198281630221e-08,1.1555942525263754,0.09712311047937981,0.8944766943311301
0.11177427681892536,0.016239342719077513,1.4105123490634305e-08,1.148743124323879,0.09620709399743221,0.8953420256869317
0.11201382189130768,0.016253179740325516,1.4067332875387102e-08,1.1420231796120601,0.09529971781403809,0.8963042845917188
0.11225336696369,0.016268421034722952,1.4045081383685516e-08,1.1355317521225057,0.09440090042998413,0.8973616085001626
0.11249291203607231,0.016285041387376756,1.4037719533880125e-08,1.1293267798080406,0.09351056111478871,0.898512104691468
0.11273245710845463,0.016303014674923403,1.4044689825889444e-08,1.1234412663418607,0.09262861989945212,0.899753890036672
0.11297200218083694,0.0163223145491628,1.406552134665234e-08,1.1178917911631006,0.0917549975692748,0.9010851136526145
0.11321154725321926,0.016342914844659343,1.4099823939019306e-08,1.1126845414840416,0.09088961565674285,0.9025039675873007
0.11345109232560158,0.016364789819347365,1.414728270095504e-08,1.1078182010825124,0.09003239643448153,0.9040086950919225
0.11369063739798389,0.016387914283242516,1.4207653056994959e-08,1.1032870011259015,0.08918326290827405,0.9055975906229723
0.11393018247036621,0.01641226368680738,1.4280756436218858e-08,1.0990818721731919,0.08834213881014744,0.9072690025789494
0.11416972754274853,0.01643781416678675,1.4366476624376549e-08,1.0951920712877847,0.08750894859152222,0.9090213316629986
0.11440927261513084,0.016464542564943722,1.4464756869954565e-08,1.0916051401236777,0.08668361741642769,0.9108530322996738
0.11464881768751316,0.01649242642201676,1.457559761170948e-08,1.0883083526358281,0.0858660711547807,0.912762607913228
0.11488836275989547,0.01652144397832082,1.4699054823319653e-08,1.0852881774934018,0.08505623637572801,0.9147486125401311
0.11512790783227779,0.016551574154202435,1.4835238932551271e-08,1.0825315148893393,0.08425404034105133,0.9168096457758339
0.1153674529046601,0.016582796538802035,1.4984314343430793e-08,1.0800247840675403,0.08345941099863453,0.9189443546907095
0.11560699797704242,0.016615091356438128,1.5146499514021367e-08,1.0777551521798088,0.0826722769759926,0.9211514278262517
0.11584654304942474,0.016648439467203444,1.5322067480002822e-08,1.075709867649369,0.08189256757386146,0.9234295971842602
0.11608608812180705,0.016682822319966997,1.551134713751987e-08,1.0738763311051525,0.08112021275984836,0.9257776347744854
0.11632563319418937,0.016718221932419536,1.5714724920071076e-08,1.0722427218668023,0.08035514316214218,0.928194349336738
0.11656517826657169,0.016754620887989437,1.593264701251355e-08,1.070797563649514,0.07959729006328313,0.9306785873951525
0.116804723338954,0.01679200229390408,1.6165622375657543e-08,1.0695295002137692,0.07884658539399093,0.9332292310428426
0.11704426841133632,0.016830349759578988,1.641422627796588e-08,1.0684280691239578,0.07810296172705175,0.9358451941128364
0.11728381348371864,0.0168696473904283,1.6679104521272523e-08,1.0674829367956387,0.07736635227126241,0.9385254240273052
0.11752335855610095,0.01690987975130041,1.696097857013278e-08,1.066684272877579,0.07663669086543197,0.9412688981555758
0.11776290362848327,0.01695103185238347,1.7260651436658593e-08,1.0660226798254473,0.07591391197243963,0.9440746230424791
0.11800244870086558,0.016993089129881574,1.7579014571614933e-08,1.0654891302214446,0.07519795067334945,0.9469416332600069
0.1182419937732479,0.01703603742999099,1.7917055817367635e-08,1.0650750790440553,0.07448874266157963,0.9498689899590239
0.11848153884563022,0.01707986298723416,1.827586866535083e-08,1.0647721238698569,0.07378622423712787,0.9528557804008543
0.11872108391801253,0.01712455240401767,1.8656662892102665e-08,1.0645724585769232,0.07309033230085057,0.955901115182947
0.11896062899039485,0.01717009264513039,1.906077678257525e-08,1.0644685099020352,0.07240100434879625,0.9590041289466353
0.11920017406277716,0.01721647101826505,1.948969131324101e-08,1.064453087659158,0.07171817846659291,0.9621639785862601
0.11943971913515948,0.017263675150227607,1.99450466090695e-08,1.0645190183615398,0.071041793323888,0.9653798427231006
0.1196792642075418,0.017311692974129406,2.042866085588293e-08,1.064659858726168,0.07037178816884125,0.9686509186733966
0.11991880927992411,0.017360512731314198,2.0942552241606656e-08,1.0648691640023986,0.06970810282266951,0.9719764247780928
0.12015835435230643,0.017410122934929086,2.1488964707607946e-08,1.0651406188255486,0.06905067767424335,0.9753555975199839
0.12039789942468875,0.017460512369192088,2.2070397708728742e-08,1.0654686024992617,0.06839945367473468,0.9787876897648383
0.12063744449707106,0.017511670089313577,2.2689641145718636e-08,1.065847358444348,0.06775437233231546,0.9822719732547753
0.12087698956945338,0.01756358539313287,2.33498165477939e-08,1.0662714986304667,0.06711537570690633,0.9858077351517698
0.1211165346418357,0.0176162478146498,2.4054425543659426e-08,1.0667357329990064,0.06648240640497556,0.9893942784090676
0.12135607971421801,0.017669647109633375,2.480740733231232e-08,1.0672350385681253,0.06585540757438732,0.9930309202786568
0.12159562478660033,0.01772377325022687,2.5613207034544977e-08,1.0677645834914788,0.065234322899299,0.9967169921704906
0.12183516985898264,0.0177786164160316,2.6476857453947092e-08,1.0683197220527492,0.06461909659510749,1.000451839058526
0.12207471493136496,0.017834166979985876,2.7404077302299683e-08,1.0688958490979537,0.06400967340344386,1.0042348189554358
0.12231426000374727,0.017890415497730454,2.8401390256758794e-08,1.0694885286130975,0.06340599858721607,1.0080653018000325
0.12255380507612959,0.017947352702068695,2.947626991131968e-08,1.07009357465329,0.06280801792569965,1.0119426688360385
0.1227933501485119,0.01800496950012783,3.0637317154182764e-08,1.0707069999289573,0.06221567770967599,1.015866312573427
0.12303289522089422,0.018063256962450862,3.189447913417172e-08,1.0713247965183492,0.06162892473661839,1.0198356367044756
0.12327244029327654,0.018122206312504677,3.325932141564467e-08,1.0719432326585419,0.06104770630592518,1.0238500544969418
0.12351198536565886,0.01818180892430562,3.474536905934775e-08,1.0725585869259469,0.060471970214200706,1.0279089894316908
0.12375153043804117,0.018242056312386776,3.6368537974499244e-08,1.0731673337845535,0.059901664750583936,1.0320118739622084
0.12399107551042349,0.018302940121311572,3.8147685703586065e-08,1.0737658448276837,0.05933673869212517,1.0361581496979884
0.1242306205828058,0.01836445210904745,4.0105322002326976e-08,1.0743506563462182,0.05877714129921151,1.0403472654688866
0.12447016565518812,0.01842658416392747,4.226853532549193e-08,1.0749188265105432,0.05822282231104236,1.0445786774105021
0.12470971072757044,0.018489328294246186,4.4670217512282756e-08,1.0754667889195195,0.05767373194115618,1.0488518516964729
0.12494925579995275,0.018552676601702747,4.7350703773106446e-08,1.075991612982502,0.057129820873011106,1.0531662589484474
0.12518880087233505,0.018616621310258003,5.0360001272139694e-08,1.0764904316638493,0.0565910402556225,1.0575213779209216
0.12542834594471736,0.018681154736087002,5.376087135944559e-08,1.0769599175863047,0.05605734169926298,1.0619166950254493
