Time [s],Lmtc [m],STIM [ ],Fsee [N],Gamma [ ],Lcerel [ ]
0.0,0.019715896307543813,0.9999997804686407,0.5902830053006857,0.06515172961680632,1.1340908650536443
0.0011101988754598307,0.019742712598580122,0.9999997848440848,1.1278591803001967,0.08297280381458534,1.134090865048016
0.0022203977509196613,0.019771029174638466,0.99999978913611,1.8827899102451313,0.10045415370390776,1.1340908627938555
0.003330596626379492,0.01979886502720915,0.999999793346235,2.812408574723888,0.11760225547158866,1.1340908592212247
0.004440795501839323,0.019818505776204143,0.9999997940857621,3.580205066037267,0.13442346184846726,1.134090848043523
0.005550994377299154,0.019826387040739676,0.9999997870341031,4.127531631219045,0.15092400439822914,1.1337601068647634
0.006661193252758985,0.019825349443177813,0.9999997723140365,4.625048774749624,0.16710999580945984,1.1329494215103204
0.007771392128218816,0.019817342974735513,0.9999997517336087,5.064921168709619,0.18298743224647257,1.131782220977742
0.008881591003678647,0.01980390817466622,0.9999997262882706,5.446581288381654,0.19856219560274482,1.1303490166233545
0.009991789879138478,0.019786234550423297,0.9999996966032432,5.773759231750941,0.2138400556637809,1.128715221612947
0.01110198875459831,0.01976523893422556,0.9999996631178568,6.052455763919972,0.22882667223717632,1.1269282773184472
0.01221218763005814,0.019741627185826824,0.9999996261687231,6.28941224490288,0.2435275972455909,1.1250228913159044
0.013322386505517972,0.019715942833411527,0.9999995860299374,6.491173059960074,0.2579482767814089,1.1230247430502966
0.014432585380977803,0.01968860527952128,0.9999995429334145,6.663619774043617,0.2720940531229971,1.1209530706456345
0.015542784256437634,0.0196599394025849,0.9999994970795213,6.811806697469708,0.2859701667129146,1.1188224720047673
0.016652983131897465,0.0196301981906783,0.9999994486428073,6.939962090559223,0.29958175809861465,1.1166441639232643
0.017763182007357294,0.01959957988587957,0.9999993977751975,7.051567044867069,0.3129338698362602,1.11442686937688
0.018873380882817124,0.019568240902258904,0.9999993446078511,7.149461716601491,0.32603144835830694,1.1121774491874135
0.019983579758276953,0.019536305542129283,0.9999992892523061,7.235953030719595,0.3388793458055212,1.1099013568037974
0.021093778633736782,0.019503873311071687,0.9999992318012308,7.312912215852601,0.3514823218240944,1.1076029695705385
0.02220397750919661,0.019471024441542695,0.9999991723289459,7.381858170963625,0.3638450453285134,1.1052858328520627
0.02331417638465644,0.01943782408221114,0.9999991108917947,7.444026428881804,0.37597209623083755,1.102952841994234
0.02442437526011627,0.019404325492534895,0.9999990475283987,7.50042511995738,0.38786796713701355,1.1006063794468395
0.0255345741355761,0.019370572493567616,0.999998982259803,7.551879881370511,0.39953706501086067,1.0982484191849755
0.02664477301103593,0.019336601360320484,0.9999989150895118,7.59906967603969,0.4109837128063387,1.09588060702443
0.02775497188649576,0.019302442292682354,0.9999988460034004,7.642555281966035,0.42221215106869797,1.0935043229822459
0.028865170761955588,0.01926812056647223,0.9999987749694873,7.682801939950782,0.43322653950510714,1.0911207301307708
0.029975369637415417,0.019233657440238305,0.999998701937548,7.720197375828011,0.4440309585253345,1.0887308131947926
0.031085568512875247,0.019199070874368073,0.9999986268385487,7.755066171814484,0.45462941075305274,1.0863354092890103
0.03219576738833508,0.01916437610505347,0.9999985495838714,7.787681258895412,0.4650258225083209,1.0839352325809883
0.03330596626379491,0.01912958610529505,0.9999984700643043,7.818273137523154,0.47522404526179396,1.081530894220944
0.03441616513925474,0.019094711957437158,0.999998388148761,7.847037302730626,0.4852278570611884,1.079122918554953
0.03552636401471457,0.01905976315598524,0.9999983036826849,7.87414024646268,0.4950409639305322,1.0767117563983275
0.0366365628901744,0.019024747855149335,0.9999982164860931,7.899724329135952,0.5046670012427108,1.0742977959673916
0.037746761765634226,0.01898967307230587,0.9999981263511943,7.923911749476899,0.5141095350658084,1.0718813719337452
0.038856960641094056,0.01895454485610256,0.9999980330395114,7.946807792693811,0.5233720634837414,1.0694627729636776
0.039967159516553885,0.018919368426046954,0.9999979362784128,7.968503498910851,0.5324580178916606,1.0670422480280168
0.041077358392013714,0.018884148276225175,0.9999978357569423,7.989077074840263,0.5413707642665921,1.06462001170829
0.042187557267473544,0.018848887672845052,0.9999977311208054,8.008558512319548,0.550113604413778,1.0621962486791443
0.04329775614293337,0.018813589629204302,0.9999976219663349,8.026986292693039,0.5586897771891594,1.0597711175112166
0.0444079550183932,0.018778257042419026,0.9999975078332138,8.044412947597296,0.5671024596984452,1.057344753910646
0.04551815389385303,0.01874289240502491,0.9999973881956723,8.060884635552037,0.5753547684731778,1.0549172734893661
0.04662835276931286,0.018707497855214993,0.9999972624517967,8.07644202916225,0.5834497606242182,1.0524887741428166
0.04773855164477269,0.018672075219799623,0.999997129910486,8.091121063231228,0.591390434973033,1.050059338097807
0.04884875052023252,0.01863662605107081,0.999996989775453,8.104953567706149,0.5991797331611703,1.0476290336820844
0.04995894939569235,0.018601151658540746,0.9999968411254789,8.117967804927822,0.6068205407382777,1.0451979168581889
0.05106914827115218,0.018565653136353593,0.9999966828898793,8.130188927090682,0.6143156882290062,1.0427660325569081
0.05217934714661201,0.018530131387031343,0.9999965138177919,8.14163936695287,0.6216679521791062,1.0403334158397377
0.05328954602207184,0.018494587142102628,0.9999963324394096,8.152339172522824,0.6288800561809954,1.0379000929149296
0.05439974489753167,0.01845902098007201,0.999996137016604,8.162306294576194,0.6359546718790392,1.0354660820277604
0.055509943772991496,0.018423433342112563,0.999995925479408,8.171556834334865,0.6428944199547247,1.0330313942423983
0.056620142648451326,0.01838782454580316,0.9999956953434167,8.180105257399466,0.6497018710918436,1.030596034130048
0.057730341523911155,0.018352194797181334,0.999995443601084,8.187964579011725,0.6563795469217016,1.0281600003758362
0.058840540399370984,0.018316544201340552,0.9999951665767753,8.195146524890323,0.6629299209482366,1.0257232863150247
0.059950739274830814,0.018280872771766127,0.9999948597306653,8.20166167119816,0.6693554194527392,1.023285880407598
0.06106093815029064,0.018245180438574798,0.9999945173891225,8.207519566632701,0.6756584223775861,1.0208477666589608
0.06217113702575047,0.018209467055798904,0.999994132367306,8.21272883916201,0.68184126418799,1.0184089249933888
0.06328133590121031,0.018173732407835687,0.9999936954301305,8.217297289539014,0.6879062347101246,1.0159693315859504
0.06439153477667015,0.018137976215165063,0.9999931945046514,8.221231973401823,0.6938555799429993,1.0135289591578336
0.06550173365212998,0.018102198139424878,0.9999926134990218,8.224539273495873,0.6996915028398406,1.0110877772393474
0.06661193252758982,0.018066397787920185,0.9999919304779329,8.227224963325526,0.7054161640520662,1.0086457524042944
0.06772213140304965,0.01803057471763306,0.999991114744641,8.229294263350234,0.7110316826242922,1.0062028484789494
0.06883233027850949,0.01799472843879011,0.9999901219803067,8.23075189067664,0.716540136620472,1.003759026728433
0.06994252915396933,0.01795885843998954,0.9999888857435788,8.231603482685186,0.7219435636454331,1.0013142460229454
0.07105272802942916,0.017922964360962808,0.9999873017047135,8.231865584243597,0.7272439611944358,0.9988684637796634
0.072162926904889,0.017887044931994715,0.9999851961640499,8.231486568440603,0.7324432866955217,0.9964216494283017
0.07327312578034884,0.017851099731022148,0.9999822568693313,8.230455166070305,0.7375434569509288,0.9939737864786812
0.07438332465580867,0.01781512854592243,0.9999778604224083,8.228774106101127,0.7425463462703332,0.991524857652754
0.07549352353126851,0.01777913113470948,0.9999705561338884,8.226445833898573,0.7474537813495471,0.9890748440279009
0.07660372240672834,0.01774310722729196,0.9999560123056057,8.223472530358299,0.7522675264076354,0.9866237251352022
0.07771392128218818,0.01770705652721104,0.9999128118649003,8.219856134623214,0.7569892294575896,0.9841714790526371
0.07882412015764802,0.017671006995246853,0.4588589693564607,8.217374174375692,0.7616200988251335,0.9817180825112228
0.07993431903310785,0.017634828845701236,3.3983752913365256e-05,8.2069599465981,0.748609874286287,0.9792645334388475
0.08104451790856769,0.01759847054685159,1.5227911412633956e-05,8.183241292189576,0.7164419919251529,0.9768131773183014
0.08215471678402753,0.017562114587176582,9.031050829549322e-06,8.156108614193663,0.685655643692863,0.9743657356594776
0.08326491565948736,0.017525763835599367,6.008784323523865e-06,8.12515905733879,0.6561920010532921,0.9719228622489329
0.0843751145349472,0.0174894219105777,4.257002253174156e-06,8.089941060756408,0.6279943602219434,0.9694853214994916
0.08548531341040704,0.01745309336012324,3.1374384633398594e-06,8.049951810495228,0.6010083723040214,0.9670540053981039
0.08659551228586687,0.017416783883961416,2.375871092768136e-06,8.004635578543589,0.5751819964946524,0.9646299528417352
0.08770571116132671,0.01738050061057403,1.8351134499348887e-06,7.953383549419833,0.5504654165378787,0.9622143716616419
0.08881591003678654,0.01734425244227385,1.4390335390968355e-06,7.895535758163116,0.5268109510205401,0.9598086636353135
0.08992610891224638,0.017308050483449952,1.1420771724441121e-06,7.830385869706191,0.5041729642560135,0.9574144527888964
0.09103630778770622,0.017271908569135887,9.1538641828355e-07,7.757189628492596,0.48250777968786135,0.9550336172864907
0.09214650666316605,0.017235843912634347,7.398476890982354e-07,7.675177868503976,0.4617735964182307,0.952668325180065
0.09325670553862589,0.01719987789157707,6.023434673764065e-07,7.583574963811776,0.44193040902451547,0.9503210742482707
0.09436690441408573,0.01716403699083826,4.936080171894254e-07,7.481623476745686,0.422939930660637,0.9479947360759783
0.09547710328954556,0.017128353917318418,4.0693953625723594e-07,7.3686154778433615,0.4047655193707262,0.9456926044089896
0.0965873021650054,0.017092868894818324,3.373945498181563e-07,7.243930523913405,0.38737210751395973,0.9434184476485376
0.09769750104046523,0.017057631136077642,2.8126625193797854e-07,7.107079557501114,0.3707261341875834,0.9411765651146001
0.09880769991592507,0.017022700472831914,2.357365398390881e-07,6.957753035422299,0.3547954805314826,0.9389718463920699
0.09991789879138491,0.016988149103247745,1.986378622016084e-07,6.795870462906939,0.3395494077979349,0.9368098326664638
0.10102809766684474,0.016954063390050383,1.6828652660480104e-07,6.6216273340149785,0.32495849807243715,0.9346967784473257
0.10213829654230458,0.01692054561407176,1.4336370510328802e-07,6.435534470337971,0.3109945975347555,0.9326397114680411
0.10324849541776442,0.016887715560367087,1.2282900494294048e-07,6.238444186252389,0.29763076215308626,0.9306464878581706
0.10435869429322425,0.016855711792516517,1.0585672580844238e-07,6.031557885012603,0.28484120570816956,0.9287258389570074
0.10546889316868409,0.016824692461288208,9.178821097021338e-08,5.8164108340589555,0.27260125004820773,0.9268874054714786
0.10657909204414392,0.016794835502392854,8.009580502688693e-08,5.594832032413718,0.260887277479415,0.9251417542405134
0.10768929091960376,0.01676633810820966,7.035531088788882e-08,5.3688800320362695,0.24967668520092481,0.923500372875048
0.1087994897950636,0.016739415407401526,6.222476337403509e-08,5.14075870447822,0.23894784169656666,0.9219756381855848
0.10990968867052343,0.016714298338048092,5.5427968951690976e-08,4.912719293270994,0.22868004499969374,0.9205807554010781
0.11101988754598327,0.016715896307542503,1.3460680966578834e-07,5.929665260698157,0.21885348275077499,0.9193296653464935
0.11143296636390485,0.016712607939283575,1.3226272291249647e-07,5.755556953596851,0.21530602784934508,0.9193296653444291
0.11184604518182642,0.01670929844744388,1.2995663558140106e-07,5.582949177558577,0.21181607722240564,0.9193296659103585
0.112259123999748,0.016705971097478272,1.2768792997833762e-07,5.412059083884112,0.20838269872517215,0.9193296664985912
0.11267220281766957,0.016702629113731424,1.2545600015080014e-07,5.243091166360333,0.20500497532293527,0.9193296671106761
0.11308528163559114,0.016699275728591954,1.2326024996888587e-07,5.076240153795068,0.2016820048461258,0.9193296677482964
0.11349836045351272,0.016695914168902107,1.2110009296607428e-07,4.911690217076219,0.1984128997493513,0.9193296684132782
0.1139114392714343,0.016692547642726915,1.1897495218258936e-07,4.749614284044448,0.1951967868743378,0.9193296691076106
0.11432451808935587,0.016689179326596117,1.1688426001130423e-07,4.590173465812118,0.1920328072167142,0.9193296698334625
0.11473759690727744,0.016685812353322133,1.148274580461462e-07,4.43351659636771,0.18892011569657818,0.919329670593204
0.11515067572519902,0.016682449800485555,1.1280399693296379e-07,4.279779885568338,0.18585788093277913,0.919329671389432
0.1155637545431206,0.016679094679667043,1.1081333622281496e-07,4.129086683980828,0.18284528502086275,0.9193296722249973
0.11597683336104217,0.016675749926491505,1.0885494422763944e-07,3.9815473565147954,0.17988152331461263,0.9193296731030381
0.11638991217896374,0.016672418391536846,1.0692829787827667e-07,3.837259260427561,0.17696580421113456,0.9193296740270182
0.11680299099688532,0.0166691028321462,1.0503288258479312e-07,3.69630682208736,0.17409734893942383,0.9193296750007723
0.1172160698148069,0.01666580590516931,1.0316819209908251e-07,3.558761705874699,0.17127539135236083,0.9193296760285595
0.11762914863272847,0.016662530160646033,1.0133372837970436e-07,3.424683067786976,0.1684991777220771,0.9193296771151236
0.11804222745065004,0.016659278036433266,9.952900145892708e-08,3.2941178856916404,0.16576796653863943,0.9193296782657734
0.11845530626857162,0.01665605185376493,9.775352931194287e-08,3.1671013577434226,0.16308102831199703,0.9193296794864687
0.1188683850864932,0.016652853813725374,9.600683772822337e-08,3.0436573602344366,0.1604376453771393,0.9193296807839312
0.11928146390441477,0.016649685994607193,9.428846018498688e-08,2.923798956069005,0.15783711170241133,0.9193296821657778
0.11969454272233634,0.016646550350117,9.259793772274918e-08,2.8075289451337713,0.15527873270093756,0.9193296836406856
0.12010762154025792,0.016643448708386233,9.093481882293576e-08,2.6948404480492645,0.15276182504510158,0.9193296852185916
0.1205207003581795,0.016640382771739216,8.929865928753247e-08,2.585717515127445,0.1502857164840337,0.9193296869109515
0.12093377917610107,0.016637354117166603,8.76890221207626e-08,2.48013575279413,0.1478497456640565,0.9193296887310569
0.12134685799402264,0.016634364197450156,8.61054774127811e-08,2.378062960258349,0.1454532619520414,0.9193296906944509
0.12175993681194422,0.016631414342883594,8.454760222539041e-08,2.2794597697942125,0.14309562526162833,0.9193296928194621
0.1221730156298658,0.016628505763534647,8.301498047979936e-08,2.184280284640741,0.14077620588226272,0.9193296951279067
0.12258609444778737,0.016625639551995752,8.150720284647147e-08,2.0924727092052575,0.1384943843110035,0.9193296976460322
0.12299917326570894,0.01662281668657504,8.002386663715153e-08,2.0039799669784344,0.1362495510870577,0.9193297004057949
0.12341225208363052,0.016620038034887572,7.8564575699228e-08,1.9187403023459808,0.1340411066289969,0.919329703446644
0.1238253309015521,0.016617304357820252,7.7128940312707e-08,1.836687863354893,0.13186846107461278,0.9193297068180563
0.12423840971947367,0.01661461631386888,7.571657709028572e-08,1.7577532635650204,0.1297310341233687,0.9193297105832401
0.12465148853739524,0.01661197446389367,7.432710888140956e-08,1.6818641226343274,0.12762825488140453,0.9193297148247287
0.12506456735531682,0.016609379276437776,7.29601646819863e-08,1.6089455878525385,0.12555956170905452,0.9193297196531411
0.1254776461732384,0.016606831133975746,7.161537955311033e-08,1.5389208440385749,0.12352440207083698,0.9193297252215447
0.12589072499115997,0.01660433034101246,7.029239455603848e-08,1.4717116316412586,0.1215222323878748,0.9193297317503456
0.12630380380908154,0.016601877136514995,6.899085672070046e-08,1.4072388275844774,0.11955251789270945,0.9193297395735476
0.12671688262700312,0.016599471718325598,6.77104190949661e-08,1.3454232586731787,0.1176147324864672,0.9193297492329652
0.1271299614449247,0.01659711430853177,6.645074103149788e-08,1.2861873980185423,0.11570835859834189,0.9193297616955926
0.12754304026284627,0.01659480541329519,6.521148942449403e-08,1.2294614333016003,0.11383288704735457,0.9193297789554767
0.12795611908076784,0.01659254787913395,6.399234705870021e-08,1.1752306083378057,0.11198781690635415,0.9193298062803421
0.12836919789868942,0.01659056606873053,6.279371287331451e-08,1.1286186033688645,0.11017265536822346,0.9193298679354303
0.128782276716611,0.016589484762196613,6.1618398916387e-08,1.1030470202439027,0.10838691761426456,0.9193314917790866
0.12919535553453257,0.016588645684602395,6.046850201327657e-08,1.0808310798748062,0.1066301266847456,0.9193404499722254
0.12960843435245414,0.016588043250144492,5.934390098725837e-08,1.0613802482206371,0.10490181335149519,0.9193578607666756
0.13002151317037572,0.016587712620806327,5.8244828134700064e-08,1.0449752979332096,0.1032015159925377,0.9193850538882564
0.1304345919882973,0.01658770759604552,5.7172228387678705e-08,1.032083202975927,0.10152878046880237,0.9194240586823734
0.13084767080621887,0.016588111730699986,5.6128306532294665e-08,1.0234354698353811,0.09988316000283685,0.919478123814375
0.13126074962414044,0.016589059975410828,5.511781343500041e-08,1.0201611605610426,0.09826421505949572,0.9195528033851738
0.13167382844206202,0.016590773453904823,5.415140914964198e-08,1.0237402151268888,0.09667151322858378,0.9196585327223843
0.1320869072599836,0.016593568399644463,5.325393559895472e-08,1.034017242795142,0.09510462910945619,0.9198174425022092
0.13249998607790517,0.016597807269718337,5.247081220094069e-08,1.0426879246415914,0.09356314419762354,0.92007977538223
0.13291306489582674,0.01660434002984222,5.18453443365786e-08,1.0412024304101244,0.09204664677329838,0.9205293849319565
0.13332614371374832,0.016614178543503742,5.1391258092699706e-08,1.032812465781721,0.09055473179138111,0.9212253175095299
0.1337392225316699,0.01662772583316321,5.110030463364484e-08,1.0217558759544456,0.08908700077278342,0.9221822366368966
0.13415230134959147,0.01664503164742838,5.095931018891889e-08,1.010059671713612,0.08764306169763707,0.9233973908614956
0.13456538016751304,0.016666024642370127,5.0956216660711764e-08,0.9985994567398222,0.08622252890050981,0.9248632312862203
0.13497845898543462,0.01669059384048811,5.108129950730096e-08,0.9877529733596638,0.0848250229674182,0.926571005593427
0.1353915378033562,0.01671861652443178,5.132719836510435e-08,0.9776736521859636,0.083450170634529,0.9285118419460731
0.13580461662127777,0.016749968700858188,5.168869899632271e-08,0.9684078419882656,0.08209760468850368,0.9306771115479126
0.13621769543919934,0.016784529307164266,5.216250047826564e-08,0.9599487512798812,0.08076696386845449,0.9330585532136779
0.13663077425712092,0.016822181922397494,5.2747025688823055e-08,0.9522629714715471,0.0794578927694862,0.9356483094897099
0.1370438530750425,0.016862815395064398,5.3442286186177605e-08,0.9453042208612901,0.07817004174779815,0.9384389271103837
0.13745693189296407,0.016906323972296664,5.424980026411106e-08,0.9390207381639409,0.07690306682732267,0.9414233425343406
0.13787001071088564,0.0169526071921363,5.5172560808416403e-08,0.9333593482886003,0.07565662960787543,0.9445948614163211
0.13828308952880722,0.01700156966379819,5.6215050555782243e-08,0.9282677085375374,0.07443039717479405,0.9479471360286513
0.1386961683467288,0.017053120798394498,5.738330433464294e-08,0.9236955266283149,0.073224042010042,0.9514741425197675
0.13910924716465037,0.017107174522447848,5.868502024097707e-08,0.9195951837697017,0.07203724190475436,0.9551701589046754
