Time [s],Lmtc [m],STIM [ ],Fsee [N],Gamma [ ],Lcerel [ ]
0.0,0.02454286985254113,0.9999985003330961,1.3261232491451185,0.09657709732252036,1.460573039174518
0.008699014542010072,0.02433898273889839,0.9999957590330618,2.424853260072815,0.22304735779728688,1.4441588469063786
0.017398029084020144,0.024110525373856707,0.9999922490020765,3.101029236287765,0.3318126210022852,1.4273262093736776
0.026097043626030214,0.023899304345347816,0.9999888909809702,3.6565729619617433,0.42535130773680413,1.4119947081965878
0.03479605816804029,0.023703205721044576,0.9999860231340807,4.148797755895346,0.5057950127477119,1.3978589756821775
0.04349507271005036,0.023518841775816392,0.999983727176201,4.596505494009075,0.5749769754687777,1.3846319490361974
0.052194087252060435,0.023343712188468244,0.9999819762148455,5.009321192712074,0.6344738109793596,1.372114197235147
0.06089310179407051,0.023176037799513955,0.999980703455904,5.393285405688235,0.6856414197286859,1.3601666522028746
0.06959211633608058,0.02301452349833969,0.999979832820906,5.752600786874964,0.7296458798640089,1.348689063716679
0.07829113087809064,0.022858198132642272,0.99997929182545,6.090374726172537,0.7674900192176223,1.337606696929414
0.08699014542010071,0.02270631309581158,0.9999790163503082,6.409000064888075,0.8000362692754792,1.3268621779839278
0.09568915996211078,0.02255827729239087,0.999978951782231,6.710374646759305,0.8280263204790983,1.3164103483575458
0.10438817450412084,0.02241361426564691,0.9999790526013134,6.996038314182692,0.8520980261349713,1.3062149041832067
0.11308718904613091,0.022271933090717583,0.9999792813767173,7.267263343408649,0.8727999398823432,1.296246128337239
0.12178620358814098,0.022132908059336015,0.9999796076102526,7.525116734356251,0.8906038179154935,1.2864793142416175
0.13048521813015104,0.02199626414186003,0.9999800066206224,7.770504574454765,0.9059153708539032,1.276893641506476
0.13918423267216112,0.021861766349040624,0.9999804585444039,8.0042045077288,0.91908351029838,1.2674713552613488
0.1478832472141712,0.02172921179142048,0.9999809474752425,8.22689004466299,0.9304083008188803,1.2581971548795319
0.15658226175618128,0.021598423646530696,0.999981460738145,8.439149118559433,0.9401477986204336,1.249057730407376
0.16528127629819137,0.02146924650242378,0.9999819882856896,8.641498488586466,0.9485239327603693,1.2400414053274198
0.17398029084020145,0.02134154271207835,0.9999825221998268,8.834395083422873,0.955727562967486,1.2311378572813598
0.18267930538221153,0.02121518950234527,0.9999830562830243,9.018245051093714,0.9619228293456935,1.2223378968951568
0.1913783199242216,0.021090076654390773,0.9999835857239405,9.193411061921276,0.9672508931039797,1.2136332905520706
0.2000773344662317,0.020966104622766466,0.999984106824709,9.36021826242859,0.9718331535735464,1.2050166168556613
0.20877634900824177,0.020843182995205014,0.9999846167788556,9.518959174277661,0.9757740148354812,1.1964811492351821
0.21747536355025185,0.020721229220010125,0.9999851134906571,9.669897758784247,0.9791632650162151,1.1880207590626048
0.22617437809226193,0.020600167545720215,0.9999855954283131,9.813272814563671,0.9820781224793388,1.179629835026873
0.234873392634272,0.02047992813070949,0.9999860615046464,9.949300837112482,0.9845849955497943,1.171303215513109
0.2435724071762821,0.020360446289976273,0.9999865109801517,10.078178440409033,0.9867409958769999,1.1630361314735465
0.25227142171829214,0.020241661853529814,0.9999869433839115,10.200084419062222,0.988595239928265,1.1548241578285003
0.2609704362603022,0.02012351861619472,0.9999873584460784,10.31518151317865,0.9901899682760996,1.1466631718518143
0.26966945080231225,0.020005963862777282,0.9999877560184924,10.423617925571133,0.9915615082058193,1.1385493173123749
0.2783684653443223,0.01988894795571377,0.9999881358874162,10.52552863121315,0.9927411017167495,1.1304789733872749
0.28706747988633236,0.019772423974786287,0.999988497213419,10.621036511265999,0.9937556184782923,1.1224487275514876
0.2957664944283424,0.019656347400418953,0.9999888371898087,10.710253338129036,0.9946281722996918,1.1144553517967217
0.30446550897035246,0.019540675833580375,0.999989148801822,10.793280633533234,0.9953786600861395,1.1064957816479628
0.3131645235123625,0.019425368746509172,0.9999894185433519,10.870210418355217,0.9960242412766166,1.098567097537226
0.32186353805437257,0.01931038725942199,0.9999896259248919,10.941125869787362,0.9965797682538409,1.090666508166512
0.3305625525963826,0.01919569393913526,0.9999897464241624,11.006101897857654,0.9970581628849712,1.082791335552224
0.3392615671383927,0.019081252616199036,0.9999897582646232,11.065205649083396,0.9974707196888072,1.0749390014961353
0.3479605816804027,0.01896702821774421,0.999989652464924,11.118496941656819,0.9978273153853952,1.06710701527496
0.3566595962224128,0.018852984292617104,0.9999894452035198,11.165858733638213,0.9981365223434663,1.0592929623792786
0.36535861076442283,0.018739081525461585,0.9999891891392603,11.206897316973253,0.99840564989295,1.0514944941597824
0.3740576253064329,0.018625287026163204,0.9999889737151191,11.241632925446076,0.9986407574860959,1.0437093182538366
0.38275663984844294,0.018511568738014017,0.9999889003624801,11.270101750469971,0.998846689018734,1.0359351896706328
0.391455654390453,0.018397895008198818,0.9999890346119034,11.292333269821937,0.9990271689048444,1.0281699024127748
0.40015466893246304,0.018284234476266474,0.9999893700266326,11.308350417283082,0.9991849805813424,1.0204112815104398
0.4088536834744731,0.018170555965828603,0.9999898388070982,11.318169729693901,0.9993222186042913,1.012657175345966
0.41755269801648315,0.018056828414367246,0.9999903556991361,11.321804160471203,0.9994405725622623,1.0049054481568465
0.4262517125584932,0.017943021718466054,0.9999908543148381,11.319323746958595,0.9995415807409718,0.9971539814668783
0.43495072710050325,0.01782910644495397,0.9999912978468213,11.310490115622184,0.9996267998022155,0.989400992275375
0.4436497416425133,0.017715062173789393,0.9999916728410456,11.295201479040783,0.9996978710504744,0.9816451904295128
0.45234875618452336,0.017600870040984342,0.9999919791347036,11.27344866173776,0.9997565018224263,0.9738853113482099
0.4610477707265334,0.01748651092089365,0.9999922222639955,11.245218684112965,0.9998044007891006,0.966120081391368
0.46974678526854347,0.017371965383930994,0.9999924091918715,11.21049471798419,0.9998432043175287,0.958348215147661
0.4784457998105535,0.017257213652957654,0.9999925464033679,11.169256028295083,0.9998744172502798,0.9505684126853354
0.48714481435256357,0.017142235558025885,0.9999926393307604,11.121477903421878,0.9998993768394563,0.9427793567445011
0.4958438288945736,0.017027010489067896,0.9999926924315387,11.067131574747227,0.999919238825648,0.9349797098454617
0.5045428434365837,0.0169115173460767,0.9999927095617014,11.006184124960159,0.9999349802850482,0.9271681112864112
0.5132418579785938,0.01679573448630329,0.9999926944754083,10.93859838388936,0.9999474131207574,0.9193431740037542
0.5219408725206038,0.016679639667976937,0.9999926513639336,10.86433281039106,0.9999572030623987,0.9115034812682966
0.5306398870626139,0.016563209990030515,0.9999925853578218,10.783341358705357,0.9999648905152063,0.9036475831900438
0.5393389016046239,0.016446421827274925,0.9999925028858621,10.69557332763999,0.999970910951711,0.8957739930030854
0.548037916146634,0.016329250760413708,0.9999924117469953,10.600973190868894,0.9999756135568312,0.8878811830999908
0.556736930688644,0.01621167150021936,0.9999923207545258,10.499480406514554,0.9999792775151626,0.8799675807822779
0.5654359452306541,0.016093657805106142,0.9999922389052666,10.391029204007394,0.999982125744256,0.8720315636898804
0.5741349597726642,0.015975182391228058,0.999992174214263,10.275548345984458,0.9999843361263909,0.8640714548680597
0.5828339743146742,0.015856216834103102,0.9999921325532243,10.152960862708404,0.9999860504554557,0.8560855174248311
0.5915329888566843,0.015736731460611532,0.9999921168923059,10.02318375615787,0.9999873814371786,0.8480719487255614
0.6002320033986943,0.015616695230031665,0.9999921271909709,9.886127670548568,0.9999884181556995,0.8400288740637449
0.6089310179407044,0.015496075602555583,0.9999921609003609,9.741696525568992,0.9999892304217641,0.831954339737948
0.6176300324827144,0.015374838393460362,0.9999922138131324,9.589787108028698,0.9999898723427655,0.8238463054542149
0.6263290470247245,0.015252947610789613,0.9999922809453304,9.430288616906948,0.9999903853371775,0.8157026359606705
0.6350280615667345,0.015130365274010306,0.9999923572312405,9.263082155944819,0.9999908007069567,0.8075210918061472
0.6437270761087446,0.015007051210635284,0.9999924379520341,9.08804016693159,0.9999911418141023,0.7992993190969686
0.6524260906507546,0.014882962827218273,0.9999925189216485,8.905025795666765,0.9999914258836385,0.7910348381048359
0.6611251051927647,0.014758054850405876,0.9999925964969646,8.713892181188164,0.999991665457818,0.7827250305532822
0.6698241197347747,0.014632279032829102,0.9999926674799332,8.514481657185174,0.9999918695371213,0.7743671253793348
0.6785231342767848,0.014505583817482839,0.9999927289603381,8.306624852492686,0.9999920444516153,0.7659581827295996
0.6872221488187948,0.014377913952801033,0.999992778125157,8.090139675094946,0.999992194507928,0.7574950759042404
0.6959211633608049,0.01424921004879021,0.999992812040415,7.8648301610478795,0.9999923224532355,0.7489744709062273
0.704620177902815,0.014119408062193355,0.9999928273941677,7.6304851660058,0.9999924297900671,0.7403928031839131
0.713319192444825,0.013988438695524803,0.9999928201715376,7.386876872425245,0.9999925169659502,0.7317462510689453
0.722018206986835,0.013856226690660686,0.9999927852087082,7.133759079762448,0.9999925834503407,0.7230307053038934
0.7307172215288451,0.013722689992075482,0.999992715532273,6.870865237749455,0.9999926276969436,0.7142417339184874
0.7394162360708552,0.013587738747164796,0.9999926013132446,6.597906173679253,0.9999926469694164,0.7053745415414941
0.7481152506128652,0.013451274100445755,0.9999924281065656,6.314567452947716,0.9999926369758366,0.6964239220155181
0.7568142651548753,0.013313186723306003,0.9999921736971493,6.020506297062438,0.9999925911970157,0.6873842028987107
0.7655132796968853,0.013173354999013592,0.9999918020353128,5.715347963788391,0.9999924996698396,0.678249180068699
0.7742122942388954,0.013031642749987159,0.9999912505209276,5.398681468454132,0.9999923467058645,0.6690120401597344
0.7829113087809054,0.012887896344145647,0.9999904001665865,5.070054491400858,0.9999921063171014,0.6596652679210603
0.7916103233229155,0.012741940937557884,0.9999889938233482,4.728967270817898,0.9999917320870658,0.6502005347215027
0.8003093378649255,0.0125935754793461,0.9999863532636685,4.374865218023213,0.9999911312729677,0.640608563253859
0.8090083524069356,0.012442565878393869,0.9999799116801852,4.007129909531589,0.9999900822461932,0.6308789618879828
0.8177073669489456,0.012288635324026775,0.9999432236059843,3.6250681675097245,0.9999878455848453,0.6210000199440053
0.8264063814909557,0.012132051349235014,1.4017131406419488e-05,3.251609680846823,0.9999779302262519,0.6109584534121449
0.8351053960329657,0.0119696813811465,2.292277992542914e-06,2.7102216271710238,0.7088044729093187,0.600872323512228
0.8438044105749758,0.01180527931529269,7.123451931741906e-07,2.0196288698877773,0.5024134912563464,0.5910719325899969
0.8525034251169858,0.011646257552918864,3.212474947957355e-07,1.264780657240914,0.35612039497752995,0.5820820854996799
0.8612024396589959,0.01151926492278335,1.9186844431032572e-07,0.7358236997954434,0.25242581467547986,0.5750897341770277
0.869901454201006,0.011465634840951765,1.0805513752944773e-06,0.3221695682746183,0.17892569771877329,0.5732410723397857
0.8712024396589959,0.011468212258051984,1.0276741780490528e-06,0.3550125249004454,0.16994967625052773,0.5732410723397854
0.8725034251169859,0.011471728061733067,9.83249627704559e-07,0.35811588743762607,0.16142397286163748,0.5734644429506103
0.8738044105749758,0.011481878084999288,9.50472004838398e-07,0.34900336077175254,0.15332599583242548,0.5742036403084849
0.8751053960329658,0.01150400315463762,9.287867597161865e-07,0.33807791878737636,0.14563428701427553,0.5757690202201108
0.8764063814909557,0.011537774808623908,9.153392423599512e-07,0.32978567599104824,0.13832846477108987,0.5781145476829994
0.8777073669489457,0.011582070934048472,9.081510165862324e-07,0.3241688502941686,0.13138916985601345,0.5811630368303154
0.8790083524069356,0.011635842825598498,9.059845805066036e-07,0.32067725820593473,0.12479801416283841,0.5848456928258792
0.8803093378649256,0.011698180323572203,9.080597777021189e-07,0.31877210524978383,0.11853753204172694,0.5891032859569512
0.8816103233229156,0.011768296582934556,9.138797961074132e-07,0.3180214826367853,0.11259113404316386,0.5938845115780229
0.8829113087809055,0.01184550529869342,9.231292002492839e-07,0.31809871104632303,0.1069430629738128,0.5991443896956775
0.8842122942388955,0.011929200993748276,9.356132457069835e-07,0.31876245960124444,0.1015783521519042,0.6048429994439084
0.8855132796968854,0.012018843555559742,9.512209571940414e-07,0.31983655709530306,0.09648278575387662,0.6109445212597627
0.8868142651548754,0.012113946460010606,9.699022132981678e-07,0.3211933490403834,0.09164286114854711,0.6174165196208533
0.8881152506128653,0.012214067880929765,9.916533044000134e-07,0.32274086090792037,0.08704575311980021,0.6242294057487318
0.8894162360708553,0.012318803974137624,1.0165077488152657e-06,0.32441316376318013,0.08267927988347545,0.6313560327374803
0.8907172215288452,0.01242778377167695,1.0445304556977037e-06,0.32616323446305634,0.07853187080870283,0.6387713873684466
0.8920182069868352,0.012540665257056521,1.07581407494027e-06,0.3279576989181639,0.07459253575834367,0.6464523521975919
0.8933191924448252,0.012657132301712986,1.1104768182391436e-06,0.3297729769667838,0.07085083596741697,0.6543775185595662
0.8946201779028151,0.012776892227167868,1.148661303402934e-06,0.33159246381811874,0.06729685638242541,0.6625270363834944
0.8959211633608051,0.012899673820813588,1.1905341389470024e-06,0.3334044758871832,0.06392117938834034,0.6708824905918573
0.897222148818795,0.013025225680463078,1.2362860695366541e-06,0.3352007595755635,0.06071485985366461,0.6794267967035675
0.898523134276785,0.013153314797643943,1.2861325690766465e-06,0.33697541431941663,0.057669401427474135,0.6881441103509042
0.8998241197347749,0.013283725315204331,1.3403148115144818e-06,0.3387241202271971,0.054776734025650795,0.6970197469461435
0.9011251051927649,0.01341625741349476,1.399100978388987e-06,0.3404435893530079,0.05202919244666342,0.7060401088449081
0.9024260906507549,0.013550726292985156,1.462787882135852e-06,0.3421311807933808,0.04941949606024602,0.7151926181585151
0.9037270761087448,0.013686961231003282,1.5317028984832548e-06,0.34378463537279585,0.04694072951516209,0.7244656539474984
0.9050280615667348,0.013824804697332356,1.6062062120462663e-06,0.3454018971821838,0.04458632441494413,0.7338484929426194
0.9063290470247247,0.013964111518417675,1.6866933878261145e-06,0.3469809977417463,0.04235004191306092,0.7433312532321373
0.9076300324827147,0.014104748083450223,1.773598288645024e-06,0.34851998486765273,0.040225956181402255,0.7529048405575345
0.9089310179407046,0.014246591588023706,1.86739636521667e-06,0.35001688301001826,0.03820843870828464,0.7625608969984872
0.9102320033986946,0.014389529312699318,1.96860835200433e-06,0.35146967531980877,0.036292143384379985,0.7722917519195488
0.9115329888566845,0.014533457934881384,2.0778044085812735e-06,0.3528763003046133,0.034471992337058485,0.7820903751090702
0.9128339743146745,0.014678282873070318,2.1956087531431533e-06,0.35423465787507263,0.03274316247562019,0.7919503320751069
0.9141349597726645,0.014823917662937775,2.3227048423571246e-06,0.35554262103284795,0.031101072711775552,0.8018657414807332
0.9154359452306544,0.01497028336485107,2.4598411600791963e-06,0.3567980505313988,0.029541371821525227,0.8118312347075769
0.9167369306886444,0.015117308002525146,2.6078376868428473e-06,0.35799881064463634,0.028059926916291517,0.8218419175354417
0.9180379161466343,0.015264926032447062,2.7675931326434927e-06,0.3591427847743486,0.02665281249276949,0.8318933339203584
0.9193389016046243,0.015413077843634715,2.9400930276634507e-06,0.36022789006655537,0.025316300032502397,0.8419814318453567
0.9206398870626142,0.015561709287181855,3.126418779481485e-06,0.36125209052818275,0.02404684812364493,0.8521025312090621
0.9219408725206042,0.01571077123492274,3.327757821313627e-06,0.3622134083677521,0.022841093078765213,0.8622532937079128
0.9232418579785941,0.015860219166432668,3.545414994314666e-06,0.3631099334491333,0.021695840023854246,0.8724306946589621
0.9245428434365841,0.016010012783472975,3.780825328375302e-06,0.36393983086250037,0.020608054434964412,0.8826319967023166
0.9258438288945741,0.016160115650895406,4.035568410700664e-06,0.3647013466941324,0.01957485410009034,0.8928547253155045
0.927144814352564,0.01631049486294294,4.311384560370657e-06,0.3653928121262772,0.01859350148503728,0.9030966460665334
0.928445799810554,0.016461120733823675,4.6101930607971064e-06,0.3660126460273183,0.017661396483100056,0.913355743528164
0.9297467852685439,0.01661196651139052,4.934112741382417e-06,0.36655935620655583,0.01677606952940024,0.9236302017728846
0.9310477707265339,0.016763008112731844,5.2854852457953785e-06,0.36703153951130696,0.01593517506170486,0.9339183863662098
0.9323487561845238,0.016914223880465193,5.666901378360793e-06,0.36742788093999584,0.015136485310478495,0.9442188277750757
0.9336497416425138,0.01706559435852661,6.081230983604534e-06,0.3677471519358808,0.01437788440180601,0.9545302061082023
0.9349507271005038,0.01721710208625967,6.5316568887889874e-06,0.367988208013895,0.01365736275766657,0.9648513371061651
0.9362517125584937,0.01736873140963026,7.021713527438126e-06,0.36814998585911896,0.012973011778845085,0.9751811593004942
0.9375526980164837,0.017520468308422882,7.555330965889493e-06,0.36823150002065624,0.012323018796536722,0.9855187222632353
0.9388536834744736,0.01767230023803638,8.136885161909207e-06,0.3682318356615867,0.011705662279436618,0.9958631758709828
0.9401546689324636,0.017824215977204474,8.771254879358343e-06,0.3681500644654382,0.011119307283813405,1.0062137603661196
0.9414556543904535,0.017976205467575238,9.463886368195835e-06,0.3679852249684988,0.010562401134718263,1.016569795533332
0.9427566398484435,0.018128259721173576,1.0220869180867468e-05,0.36773659029935074,0.01003346932714163,1.026930673027581
0.9440576253064334,0.018280370723300035,1.1049022991073816e-05,0.3674035092653908,0.00953111163668015,1.0372958505773016
0.9453586107644234,0.018432531333235268,1.1955997139782599e-05,0.3669853856818288,0.009053998429831405,1.0476648453293589
0.9466595962224134,0.018584735194917757,1.295038530902383e-05,0.36648167458257824,0.008600867164681685,1.0580372277868382
0.9479605816804033,0.01873698119952759,1.4041857736756348e-05,0.3659520830021719,0.008170519073442536,1.0684126163215575
0.9492615671383933,0.018889325229792135,1.524131371333641e-05,0.36620290138396894,0.007761816019003442,1.0787906722124607
0.9505625525963832,0.01904178188226837,1.656105744195239e-05,0.3674872467266634,0.007373677518427923,1.089171095164415
0.9518635380543732,0.01919434686883929,1.8015000687132947e-05,0.3698054146082542,0.0070050779271315245,1.099553619265194
0.9531645235123631,0.019347016028355802,1.961889596687269e-05,0.3731576346659343,0.006655043778332327,1.1099380093415425
0.9544655089703531,0.019499785294125424,2.139060435774944e-05,0.3775440823892089,0.006322651273227654,1.12032405767817
0.955766494428343,0.019652650671906975,2.3350402276145593e-05,0.3829648892032915,0.00600702391817462,1.1307115810663815
0.957067479886333,0.019805608227021352,2.5521331874862995e-05,0.38942015106231875,0.005707330305867183,1.1411004181516784
0.958368465344323,0.01995865407906455,2.7929599957630505e-05,0.39690993574635525,0.005422782038028193,1.1514904270521957
