Time [s],Lmtc [m],STIM [ ],Fsee [N],Gamma [ ],Lcerel [ ]
0.0,0.022630237205109507,0.999999786652598,1.473556906332545,0.0892643101587911,1.3298758299536733
0.002798432469871566,0.02260081917131395,0.9999997058437503,2.5662477926339995,0.13239431564674192,1.325457678802706
0.005596864939743132,0.022525311766453632,0.9999995752246131,3.3849931762439103,0.17348179516897658,1.3188335247630987
0.0083952974096147,0.022430787512147297,0.9999994083883914,3.9387235393218205,0.21262347495400757,1.3114928476511496
0.011193729879486265,0.022328273244733163,0.9999992174362039,4.329101289889605,0.24991150117762617,1.3039111108813628
0.01399216234935783,0.022222586671752625,0.9999990127004511,4.6284894573682225,0.2854336567913353,1.2962705233661391
0.016790594819229395,0.022115901519537323,0.999998802412275,4.87562879075594,0.31927356806926466,1.288649318946538
0.01958902728910096,0.02200924461765577,0.9999985927907288,5.090586871790771,0.3515109013578265,1.2810831617071057
0.022387459758972526,0.02190311681039879,0.9999983883283542,5.284100539008064,0.3822215505120554,1.2735882978763873
0.02518589222884409,0.021797762477675894,0.9999981921257662,5.462209676450077,0.4114778154689848,1.2661714139240239
0.027984324698715656,0.021693294117638838,0.999998006205036,5.628497751763306,0.4393485723801112,1.2588342470803182
0.03078275716858722,0.021589753587174076,0.9999978317755092,5.785203512945284,0.46589943570167724,1.2515759012859364
0.03358118963845879,0.02148714387634033,0.9999976694473959,5.933795183405422,0.49119291262138043,1.2443940749465139
0.03637962210833036,0.021385446354082585,0.999997519397844,6.075279974919555,0.5152885501819582,1.2372857381866316
0.03917805457820193,0.021284630472918033,0.9999973814973229,6.210377946556867,0.5382430754452583,1.2302475168812002
0.041976487048073496,0.02118465938287095,0.9999972554043725,6.339623491718148,0.5601105290244955,1.2232759139418647
0.044774919517945065,0.02108549324186038,0.9999971406358327,6.46342671662381,0.5809423922972654,1.2163674372855935
0.047573351987816634,0.020987091187882133,0.9999970366183966,6.582111791779255,0.6007877085974125,1.209518672929519
0.0503717844576882,0.020889412513700807,0.9999969427261014,6.695941646645281,0.6196931986700179,1.2027263252164344
0.05317021692755977,0.020792417356568924,0.9999968583073152,6.805134319325647,0.6377033706605215,1.195987237115835
0.05596864939743134,0.020696067088522292,0.9999967827039139,6.909874064954426,0.6548606248963286,1.1892983983888894
0.05876708186730291,0.020600324519963884,0.9999967152646821,7.010319087459557,0.6712053537071477,1.182656946388308
0.06156551433717448,0.02050515398632928,0.9999966553544531,7.106607044100734,0.6867760365187406,1.176060162456204
0.06436394680704605,0.020410521361733467,0.9999966023601189,7.198859048270551,0.7016093304437148,1.1695054657777593
0.06716237927691761,0.020316394027554086,0.9999965556943484,7.287182638654215,0.715740156582463,1.162990405861295
0.06996081174678917,0.020222740813910168,0.9999965147976391,7.371674023009577,0.7292017822372974,1.1565126543819728
0.07275924421666073,0.020129531925633368,0.9999964791391589,7.4524198034870635,0.7420258992332387,1.1500699968501018
0.0755576766865323,0.020036738860225594,0.999996448216723,7.529498324894975,0.7542426985297792,1.1436603243873549
0.07835610915640386,0.019944334322623422,0.9999964215561542,7.602980744186748,0.7658809412992325,1.1372816257794311
0.08115454162627542,0.019852292139832733,0.9999963987102117,7.67293189056794,0.7769680266389714,1.1309319798993736
0.08395297409614698,0.019760587177335493,0.9999963792572234,7.739410965971135,0.7875300560769416,1.1246095485477332
0.08675140656601854,0.01966919525840055,0.999996362799519,7.80247212207332,0.7975918950223051,1.1183125697250094
0.0895498390358901,0.01957809308691936,0.9999963489617328,7.862164940518618,0.8071772313058685,1.1120393513323463
0.09234827150576166,0.019487258174049615,0.9999963373890262,7.918534836252467,0.8163086309481117,1.105788265284513
0.09514670397563323,0.01939666876872836,0.9999963277452595,7.9716233990106415,0.8250075912861087,1.0995577420121596
0.09794513644550479,0.019306303791972554,0.9999963197111373,8.021468684463203,0.8332945915844102,1.0933462653265529
0.10074356891537635,0.019216142774794834,0.9999963129823336,8.068105463900514,0.841189141249046,1.0871523676183048
0.10354200138524791,0.01912616579950712,0.9999963072676025,8.111565439399207,0.8487098257581476,1.0809746253612578
0.10634043385511947,0.01903635344415354,0.9999963022868705,8.151877429935492,0.8558743504173296,1.0748116548931859
0.10913886632499104,0.018946686729798688,0.9999962977693013,8.189067532792007,0.862699582042848,1.0686621084459393
0.1119372987948626,0.018857146559314787,0.9999962934513181,8.223127160191302,0.8692015886706544,1.0625246703989064
0.11473573126473416,0.018767710098636665,0.9999962890745661,8.253788131961883,0.8753956773848514,1.0563980537310274
0.11753416373460572,0.018678358360733196,0.9999962843837904,8.28100166890457,0.8812964303545895,1.0502809966479238
0.12033259620447728,0.0185890737073903,0.9999962791245993,8.3047857656346,0.8869177391642535,1.0441722593620333
0.12313102867434884,0.018499838700664177,0.9999962730410755,8.325155920508246,0.8922728375177592,1.0380706210048198
0.1259294611442204,0.018410636061916136,0.9999962658731929,8.342125208661843,0.8973743323939486,1.0319748766512136
0.12872789361409198,0.01832144863177,0.999996257353981,8.355704343285273,0.9022342337264221,1.0258838344373356
0.13152632608396356,0.01823225933075711,0.9999962472063739,8.36590172600224,0.906863982677683,1.0197963127533631
0.13432475855383513,0.018143051120416302,0.9999962351396585,8.372723487059831,0.9112744785741421,1.0137111374939731
0.1371231910237067,0.01805380696461757,0.9999962208454203,8.37617351588302,0.9154761045653869,1.0076271393492642
0.13992162349357828,0.01796451012788153,0.9999962039933349,8.376274847707966,0.9194787520681001,1.0015431511193145
0.14272005596344986,0.01787514426600701,0.9999961842337275,8.373049525952142,0.9232918440521837,0.9954580354988856
0.14551848843332144,0.01778569129082163,0.9999961611980115,8.36613076298486,0.926924357224233,0.9893709565967687
0.148316920903193,0.017696140660411145,0.9999961344827274,8.355492957303046,0.9303848431604835,0.9832812286584659
0.1511153533730646,0.0176064820517774,0.9999961036385668,8.341130835026075,0.9336814484381976,0.9771881616990249
0.15391378584293616,0.01751670499769663,0.9999960681605089,8.323037601803428,0.9368219338131687,0.9710910602847802
0.15671221831280774,0.017426798871735535,0.9999960274757814,8.301204932330096,0.9398136924885585,0.9649892225824882
0.15951065078267931,0.017336752872545227,0.9999959809290122,8.275622956105154,0.9426637675180013,0.9588819393790102
0.1623090832525509,0.017246556007367263,0.9999959277637321,8.246280239397194,0.9453788683838418,0.952768493067873
0.16510751572242247,0.017156197074677887,0.9999958670990974,8.213163763351316,0.9479653867893936,0.9466481565987096
0.16790594819229404,0.0170656646458884,0.9999957979002801,8.176258898143356,0.9504294117022188,0.940520192385249
0.17070438066216562,0.01697494704600991,0.9999957189403839,8.135549373058256,0.9527767436835932,0.9343838511671391
0.1735028131320372,0.01688403233318074,0.9999956287508655,8.091017242339854,0.9550129085375658,0.9282383708204724
0.17630124560190877,0.016792908276942936,0.9999955255561644,8.042642846628729,0.9571431703112822,0.9220829751114162
0.17909967807178034,0.016701562335141765,0.9999954071862936,7.990404769772325,0.9591725436765577,0.9159168723868374
0.18189811054165192,0.016609981629307546,0.9999952709581658,7.934279790757338,0.9611058057209464,0.9097392541952336
0.1846965430115235,0.01651815291836254,0.999995113511738,7.874242830476946,0.9629475071748045,0.9035492938306224
0.18749497548139507,0.01642606257047741,0.9999949305794975,7.810266893005389,0.964701983098902,0.897346144791326
0.19029340795126665,0.016333696532880318,0.9999947166553015,7.742323001007971,0.9663733630549851,0.8911289391447575
0.19309184042113822,0.016241040299397373,0.9999944645072321,7.670380124865598,0.9679655807790059,0.8848967857883818
0.1958902728910098,0.016148078875475518,0.999994164441388,7.594405105038622,0.9694823833731829,0.8786487685959815
0.19868870536088137,0.016054796740406593,0.9999938031541565,7.514362567133627,0.9709273400278835,0.8723839444371655
0.20148713783075295,0.015961177806434024,0.9999933618769647,7.430214829067668,0.9723038502761131,0.8661013410566901
0.20428557030062452,0.01586720537438069,0.9999928132463263,7.341921799645788,0.9736151517692321,0.8597999547986431
0.2070840027704961,0.015772862085385704,0.9999921157451664,7.249440867776029,0.974864327536209,0.8534787481587655
0.20988243524036768,0.015678129868279274,0.9999912031900485,7.15272678143746,0.9760543126358577,0.8471366471462016
0.21268086771023925,0.01558298988205476,0.9999899632143872,7.051731515381421,0.9771878999961877,0.8407725384336576
0.21547930018011083,0.015487422452815654,0.9999881884698739,6.946404126363897,0.9782677449582499,0.8343852662723736
0.2182777326499824,0.015391407004476528,0.9999854493758821,6.836690594425201,0.9792963672938534,0.8279736291453559
0.22107616511985398,0.015294921982380378,0.9999806874125075,6.7225336482176195,0.980276147101538,0.8215363761291502
0.22387459758972555,0.015197944768860477,0.9999703995792246,6.603872571528808,0.9812093016365386,0.8150722029315326
0.22667303005959713,0.015100451589894558,0.9999319433213648,6.48064299937217,0.9820977772596767,0.8085797475734637
0.2294714625294687,0.01500251730310036,5.927911919060917e-05,6.358293009431457,0.9829423558769774,0.8020575857342951
0.23226989499934028,0.014903414712569701,1.01893065472151e-05,6.191067502617893,0.8799305455101671,0.7955132720428568
0.23506832746921186,0.014803748332088869,4.2662221167746846e-06,6.003993429974311,0.7877099314224688,0.7889585442496716
0.23786675993908343,0.014703487693758918,2.1927633315324086e-06,5.791472835611542,0.7051540466753784,0.7823998810930498
0.240665192408955,0.014602606468363822,1.2386549405687728e-06,5.546600498984653,0.6312503650983531,0.77584664113001
0.24346362487882658,0.014501096033705946,7.407997323170535e-07,5.2615703632888735,0.565092194029249,0.7693120232776928
0.24626205734869816,0.014398994906573717,4.61975063457545e-07,4.928851269220693,0.5058677988921328,0.7628142881116259
0.24906048981856974,0.014296444150810723,2.9858378889415095e-07,4.5434652730382465,0.4528504955755112,0.7563783025713631
0.2518589222884413,0.014193777171572311,1.996632194014627e-07,4.106316654772067,0.4053897505675882,0.7500375017866484
0.25465735475831286,0.014091641240796728,1.3815851355686357e-07,3.6275958911618287,0.3629032053697947,0.7438364178677781
0.2574557872281844,0.013991128401803688,9.895784267881639e-08,3.128230839254837,0.324869533795527,0.7378340263675606
0.26025421969805596,0.013893887452194258,7.331428164050013e-08,2.6375680913712816,0.2908220466187725,0.7321085277079095
0.2630526521679275,0.013802241837468854,5.602919156862908e-08,2.187748779300951,0.26034296591461076,0.7267663203711665
0.26585108463779905,0.013719417221961431,4.398680661957625e-08,1.8054160365961787,0.23305829919273502,0.7219659467545237
0.2686495171076706,0.013649785749323925,3.540203252831833e-08,1.4971891862135527,0.20863325060319898,0.7179687290787613
0.27144794957754215,0.013598200159990862,2.9236159974717396e-08,1.2441079725667106,0.18676811300030155,0.7151272197334059
0.2742463820474137,0.01356672446234422,2.465449914628678e-08,1.0318365147659792,0.16719459048499416,0.7136023288537944
0.27704481451728524,0.013550017440141369,2.094448420440663e-08,0.8258329858591543,0.14967250631311152,0.7131299081848417
0.2798432469871568,0.01353820228521776,1.4163560321130664e-07,0.6074005348410102,0.13398685582871903,0.7131298316625431
0.28037814785061854,0.01354486071769511,1.3853594830710676e-07,0.7263918806237734,0.13118135815032383,0.7131298316625422
0.2809130487140803,0.01354712483391479,1.3562867959914434e-07,0.7317175219719027,0.12843460805784174,0.7132646886240674
0.28144794957754204,0.013550929042168227,1.329483177954355e-07,0.7387501834372064,0.12574537536976585,0.713498363303664
0.2819828504410038,0.01355723917173031,1.3058399022695739e-07,0.7370875730677175,0.12311245566554499,0.7139342983120098
0.28251775130446555,0.013567436931825022,1.2855966932474923e-07,0.7292481110008331,0.12053466974728784,0.7146575577751954
0.2830526521679273,0.013582024422701188,1.268445800817272e-07,0.7196378804510194,0.11801086311023175,0.7156865356506082
0.28358755303138905,0.013601005061204506,1.2539779738331195e-07,0.7101098123409216,0.115539905424517,0.71701475491524
0.2841224538948508,0.013624239762782134,1.2418270676277047e-07,0.7013354579030725,0.11312069002874774,0.7186302435386682
0.28465735475831255,0.013651553245408695,1.2316889802138778e-07,0.6935333393262612,0.11075213343445951,0.7205201949495267
0.2851922556217743,0.013682765686958465,1.223315544120499e-07,0.686739547109458,0.10843317484100425,0.7226721642576854
0.28572715648523606,0.013717703080056185,1.2165048980845402e-07,0.6809139228320339,0.10616277566057976,0.7250743936950012
0.2862620573486978,0.013756200638805888,1.211092711161284e-07,0.6759852958698378,0.10393991905318603,0.7277158801706074
0.28679695821215956,0.013798103662866202,1.2069449802654817e-07,0.6718719872652251,0.10176360947130017,0.730586357584031
0.2873318590756213,0.013843267403851695,1.2039522975062532e-07,0.6684914168511014,0.0996328722140718,0.7336762503991716
0.28786675993908306,0.013891556536367956,1.2020253260934677e-07,0.6657645905198235,0.09754675299084106,0.7369766190698401
0.2884016608025448,0.013942844487285878,1.2010912317279377e-07,0.663618068738185,0.09550431749378775,0.7404791053106343
0.28893656166600656,0.013997012735322025,1.201090860369353e-07,0.6619846612845701,0.0935046509795211,0.74417588034282
0.2894714625294683,0.014053950131196888,1.2019764982494063e-07,0.6608034733179093,0.09154685785942568,0.7480595972320674
0.29000636339293007,0.014113552260137881,1.2037100876197177e-07,0.6600196280624386,0.08963006129858081,0.7521233475661098
0.2905412642563918,0.014175720854840913,1.206261801226822e-07,0.6595838394717836,0.08775340282307476,0.7563606223419833
0.29107616511985357,0.014240363260345062,1.2096089010920718e-07,0.6594519283194265,0.08591604193553913,0.7607652767749888
0.2916110659833153,0.014307391949052293,1.2137348243294666e-07,0.6595843318762699,0.08411715573873138,0.7653314986867601
0.29214596684677707,0.014376724082643247,1.2186284517605408e-07,0.6599456333856625,0.08235593856699783,0.7700537801233527
0.2926808677102388,0.014448281117060861,1.2242835250110612e-07,0.6605041241208578,0.08063160162545244,0.7749268918701545
0.2932157685737006,0.014521988446621809,1.2306981853800685e-07,0.6612314032571381,0.07894337263670967,0.779945860555791
0.2937506694371623,0.014597775083442763,1.2378746136409187e-07,0.6621020165787513,0.07729049549501438,0.785105948065686
0.2942855703006241,0.014675573368611552,1.245818754499458e-07,0.6630931327545841,0.07567222992761316,0.790402633014454
0.29482047116408583,0.014755318711824283,1.2545401130182454e-07,0.6641842547487768,0.07408785116321624,0.7958315940532427
0.2953553720275476,0.014836949356512665,1.264051613158105e-07,0.6653569634142362,0.07253664960740139,0.8013886948129513
0.29589027289100933,0.014920406167780885,1.2743695108694858e-07,0.6665946901718649,0.07101793052481441,0.8070699703066344
0.2964251737544711,0.015005632440749445,1.2855133560229365e-07,0.6678825157424073,0.06953101372802462,0.8128716146344767
0.29696007461793283,0.01509257372715868,1.2975059990047372e-07,0.669206992073205,0.0680752332728955,0.8187899698525202
0.2974949754813946,0.015181177678317299,1.3103736391015223e-07,0.6705559848306765,0.06664993716033418,0.8248215158821429
0.29802987634485634,0.01527139390269018,1.3241459129201933e-07,0.6719185340765725,0.06525448704428675,0.8309628613512248
0.2985647772083181,0.015363173836606932,1.3388560220879772e-07,0.6732847309923651,0.06388825794584824,0.8372107352702567
0.29909967807177984,0.015456470626739726,1.35454090039428e-07,0.6746456087505603,0.06255063797335925,0.8435619794575157
0.2996345789352416,0.015551239023147263,1.3712414214073494e-07,0.675993045848744,0.06124102804836474,0.8500135416370013
0.30016947979870334,0.015647435281813532,1.3890026484566463e-07,0.6773196804194951,0.05995884163731097,0.8565624691412759
0.3007043806621651,0.015745017075727005,1.407874129746283e-07,0.6786188342065906,0.058703504488862045,0.8632059031588154
0.30123928152562685,0.015843943413649496,1.427910242285125e-07,0.6798844450558292,0.05747445437671704,0.869941073472053
0.3017741823890886,0.01594417456581558,1.449170589315481e-07,0.6811110069086909,0.056271140847813816,0.876765293638105
0.30230908325255035,0.016045671995885205,1.4717204570269763e-07,0.6822935164103733,0.05509302497580599,0.8836759565693348
0.3028439841160121,0.016148398298543778,1.4956313375917605e-07,0.6834274253522127,0.05393957911970327,0.8906705304754274
0.30337888497947385,0.01625231714220848,1.5209815269934694e-07,0.6845085982637418,0.05281028668756705,0.8977465551327054
0.3039137858429356,0.01635739321635589,1.5478568077949768e-07,0.685533274553009,0.051704641905155245,0.9049016384499748
0.30444868670639735,0.016463592183036713,1.5763512289587328e-07,0.6864980346669518,0.05062214958941362,0.9121334533033626
0.3049835875698591,0.01657088063218792,1.6065679971715232e-07,0.6873997698074957,0.04956232492671137,0.9194397346154253
0.30551848843332086,0.016679226040392552,1.6386204969231394e-07,0.6882356547951349,0.04852469325572272,0.9268182766563087
0.3060533892967826,0.016788596732772793,1.6726334599586316e-07,0.6890031237207118,0.047508789854857146,0.9342669305469659
0.30658829016024436,0.0168989618477334,1.7087443088085783e-07,0.689699848069042,0.04651415973414306,0.941783601946431
0.3071231910237061,0.017010291304300804,1.747104704080964e-07,0.6903237170356906,0.04554035743147249,0.9493662489069085
0.30765809188716786,0.017122555771827964,1.7878823313017128e-07,0.6908728197910768,0.0445869468131157,0.9570128798820156
0.3081929927506296,0.017235726641857824,1.8312629706134542e-07,0.6913454294750602,0.04365350087841666,0.9647215518749367
0.30872789361409136,0.017349776001957754,1.8774529019651e-07,0.6917399887304885,0.04273960156858266,0.9724903687144953
0.3092627944775531,0.01746467661135566,1.9266817100444774e-07,0.6920550966064906,0.04184483957948298,0.9803174794482915
0.30979769534101487,0.017580401878224128,1.979205567772663e-07,0.6922894966818559,0.040968814178373385,0.9882010768430591
0.3103325962044766,0.017696925838420665,2.035311095272915e-07,0.6924420653151294,0.040111133024465354,0.9961393959832971
0.31086749706793837,0.01781422313307285,2.0953198975275242e-07,0.6925117587884134,0.03927141199326068,1.0041307129444272
0.3114023979314001,0.017932268981878496,2.1595939286514714e-07,0.6924975786887831,0.03844927500457409,1.0121733431054944
0.3119372987948619,0.01805103917565933,2.2285419482869207e-07,0.6923987389586828,0.03764435385416832,1.020265640019682
0.3124721996583236,0.018170510061633626,2.3026272412582318e-07,0.6922145673807008,0.03685628804892823,1.0284059947809587
0.3130071005217854,0.01829065852743833,2.382376897536977e-07,0.691944483966514,0.036084724645502664,1.036592835017748
0.3135420013852471,0.01841146198670229,2.4683930548977195e-07,0.69158799468309,0.03532931809234458,1.0448246239347132
0.3140769022487089,0.018532898365449524,2.56136660572749e-07,0.691144685674336,0.03458973007508237,1.0530998594090313
0.31461180311217063,0.018654946089266395,2.6620940210737366e-07,0.6906142179277177,0.033865629365158044,1.0614170731368637
0.3151467039756324,0.01877759055873593,2.7714981506198077e-07,0.6901143737575847,0.033156691671669805,1.0697748298260967
0.31568160483909413,0.018900841207483622,2.890654138670503e-07,0.6901914539297682,0.03246259949636107,1.0781717264317348
0.3162165057025559,0.019024682123095715,3.020821985779852e-07,0.6909223592870667,0.031783041991699984,1.0866063914306403
