Time [s],Lmtc [m],STIM [ ],Fsee [N],Gamma [ ],Lcerel [ ]
0.0,0.01889193923083823,0.9999996023995159,0.49748243381036544,0.06579471477743218,1.0783456111784886
0.0006416503677671146,0.018906063235620867,0.9999996069083288,0.7396327845732323,0.07612927703077124,1.0783456111752514
0.0012833007355342292,0.01892103180500679,0.9999996113672773,1.0485024335622006,0.08634951411648738,1.078345610443938
0.0019249511033013439,0.0189364715513588,0.9999996157769172,1.4234153635055515,0.09645669074648931,1.0783456096540127
0.0025666014710684585,0.018952057497475076,0.9999996201377888,1.8598867502550898,0.1064520576419239,1.0783456087810894
0.003208251838835573,0.01896750717621029,0.9999996244504261,2.3500617502003003,0.11633685168794732,1.0783456077892217
0.0038499022066026877,0.01898258111426877,0.9999996287153562,2.8835105378109334,0.12611229608678487,1.0783456066218038
0.004491552574369803,0.0189970848813738,0.999999632933097,3.448243231297721,0.1357796005090967,1.0783456051811704
0.005133202942136917,0.019010870024063924,0.9999996371041511,4.031775621760591,0.1453399612436698,1.0783456032746541
0.005774853309904031,0.019023832721403938,0.9999996412289716,4.622087274226414,0.15479456134545344,1.0783456004287433
0.006416503677671145,0.01903590554058013,0.9999996453047268,5.208134660867015,0.16414457078195724,1.0783455948144982
0.00705815404543826,0.019042083413209496,0.9999996462506164,5.5216471950026005,0.17339114657799298,1.0783454646742834
0.007699804413205374,0.0190456620657407,0.9999996416708932,5.80273969812925,0.18253543292480323,1.0782218410016742
0.008341454780972488,0.019047088382892614,0.999999632644304,6.063546864192025,0.19157856132960924,1.0779859744173739
0.008983105148739602,0.019046623155914877,0.9999996199528587,6.304288112051641,0.20052165079436343,1.0776531604558999
0.009624755516506716,0.01904449654909623,0.9999996041023489,6.5255967339587215,0.20936580795080498,1.077236494242537
0.01026640588427383,0.01904091048629074,0.9999995854276897,6.728396730529145,0.2181121271942483,1.076747142380908
0.010908056252040945,0.01903604152374035,0.9999995641529551,6.9138016904007324,0.2267616908170578,1.0761946142504157
0.011549706619808059,0.01903004371106587,0.999999540427016,7.083032175505385,0.23531556914130897,1.0755870093695712
0.012191356987575173,0.019023051281013937,0.9999995143454231,7.237350817241673,0.24377482065037762,1.0749312344748871
0.012833007355342287,0.019015181113827318,0.9999994859641934,7.378013823186336,0.2521404921193135,1.0742331901349196
0.013474657723109401,0.019006534959499086,0.9999994553086371,7.506236740108324,0.2604136187439261,1.0734979291833153
0.014116308090876516,0.01899720141828252,0.999999422379033,7.623171900410093,0.2685952242685391,1.0727297901751631
0.01475795845864363,0.018987257689419657,0.9999993871542273,7.729894984374727,0.27668632111239483,1.0719325092641165
0.015399608826410744,0.0189767711037373,0.9999993495938092,7.827398393367128,0.28468791049469966,1.0711093137373882
0.01604125919417786,0.018965800458866543,0.999999309639274,7.916589504058509,0.2926009825583103,1.0702630001257396
0.016682909561944976,0.018954397177111927,0.9999992672144218,7.9982922666883365,0.300426516492065,1.0693959994310833
0.017324559929712092,0.018942606305981817,0.9999992222251506,8.073250970452053,0.30816548065176563,1.0685104316412624
0.017966210297479208,0.018930467380525288,0.9999991745587332,8.142135304466803,0.3158188326798194,1.0676081513575
0.018607860665246324,0.018918015165240356,0.9999991240826211,8.205546088721414,0.3233875196235487,1.0666907860563775
0.01924951103301344,0.01890528029167171,0.9999990706427883,8.264021240177915,0.3308724780521787,1.0657597682474764
0.019891161400780556,0.018892289803003746,0.9999990140615929,8.318041488572723,0.33827463417251374,1.0648163625678964
0.02053281176854767,0.018879067531715272,0.9999989541351182,8.36803016444501,0.34559490394330805,1.0638616886715693
0.021174462136314787,0.018865634648347753,0.9999988906299201,8.414367618343764,0.35283419318834497,1.0628967406196699
0.021816112504081903,0.01885201000709916,0.9999988232790865,8.457396055410278,0.3599933977082261,1.061922403353682
0.02245776287184902,0.01883821039843286,0.9999987517774801,8.49742108005685,0.36707340339088257,1.0609394667303318
0.023099413239616135,0.018824250806781084,0.9999986757759971,8.534715736950277,0.3740750863208101,1.0599486375138165
0.02374106360738325,0.01881014463291392,0.999998594874625,8.569524139820796,0.38099931288703204,1.0589505496521268
0.024382713975150367,0.018795903886111916,0.9999985086140196,8.602064713784017,0.38784693988979113,1.05794577310813
0.025024364342917483,0.018781539350515786,0.9999984164652423,8.632533081423661,0.3946188146459696,1.0569348214700507
0.0256660147106846,0.01876706072937314,0.9999983178171823,8.661104624602906,0.4013157750932268,1.055918158528243
0.026307665078451715,0.018752476770344726,0.9999982119610508,8.687936753842274,0.40793864989284767,1.0548962039741212
0.02694931544621883,0.01873779537455934,0.9999980980711305,8.71317091581995,0.4144882585312815,1.053869338351579
0.027590965813985947,0.018723023691704633,0.9999979751806918,8.736934367598558,0.42096541142034377,1.0528379073701506
0.028232616181753063,0.018708168203100634,0.9999978421516104,8.75934174388842,0.42737090999604377,1.0518022256717412
0.02887426654952018,0.018693234794414634,0.9999976976356841,8.780496441239418,0.4337055468159826,1.0507625801283145
0.029515916917287294,0.018678228819431854,0.9999975400248902,8.800491840652187,0.43997010565524625,1.049719232735916
0.03015756728505441,0.018663155156089933,0.9999973673867132,8.8194123878012,0.4461653616006866,1.0486724231604265
0.030799217652821526,0.018648018255810046,0.9999971773790537,8.837334547916454,0.4522920811434448,1.0476223709820855
0.03144086802058864,0.018632822187009013,0.9999969671367838,8.85432765040232,0.45835102226951074,1.046569277678831
0.032082518388355755,0.018617570673551128,0.9999967331182898,8.870454636489459,0.4643429345480229,1.0455133283826548
0.03272416875612287,0.01860226712879125,0.9999964708945165,8.88577272161648,0.4702685592168962,1.0444546934382257
0.033365819123889986,0.018586914685769916,0.999996174853711,8.900333982813729,0.4761286292651694,1.043393529788874
0.0340074694916571,0.018571516224043672,0.999995837779774,8.914185880099662,0.48192386951117266,1.0423299822115173
0.03464911985942422,0.018556074393567965,0.9999954502362501,8.927371719787228,0.48765499667516843,1.041264184419123
0.035290770227191334,0.018540591635993378,0.9999949996427487,8.9399310666186,0.49332271944437306,1.0401962600467696
0.03593242059495845,0.018525070203687835,0.9999944688483803,8.951900110787207,0.49892773852704275,1.039126323535211
0.036574070962725566,0.018509512176756147,0.9999938338507384,8.963311995152809,0.50447074669018,1.0380544809240173
0.03721572133049268,0.01849391947829264,0.9999930599971444,8.974197107294687,0.5099524287715888,1.0369808305647743
0.0378573716982598,0.018478293888072258,0.9999920953430406,8.984583340467914,0.5153734616497746,1.0359054637634952
0.038499022066026914,0.018462637054859128,0.9999908583317846,8.994496327014511,0.5207345141407055,1.0348284653602282
0.03914067243379403,0.018446950507488732,0.9999892131901191,9.003959647320801,0.5260362467594253,1.0337499142528634
0.039782322801561146,0.01843123566486012,0.9999869159013604,9.012995016983645,0.5312793112121211,1.0326698838713013
0.04042397316932826,0.018415493844956655,0.9999834794920072,9.021622454421426,0.5364643492961486,1.0315884426074378
0.04106562353709538,0.01839972627299956,0.9999777714568909,9.029860430734223,0.5415919903219863,1.0305056542059348
0.041707273904862494,0.018383934088839315,0.9999664139537218,9.037726003870436,0.546662844110301,1.0294215781205902
0.04234892427262961,0.018368118353974026,0.9999327505224308,9.045234956583359,0.551677476368951,1.0283362698424756
0.042990574640396725,0.01835237530975231,0.11860507733586959,9.058680723172795,0.5566362622888663,1.0272497812189942
0.04363222500816384,0.018336245063443238,2.7013936579244444e-05,9.045854032963547,0.5456566123719102,1.0261640717052913
0.04427387537593096,0.01832005792681005,1.2683568019332896e-05,9.026183377702255,0.5319798858433423,1.0250815794688848
0.04491552574369807,0.018303898070971967,7.928571342102024e-06,9.004585389946104,0.5186456265912592,1.0240029656424932
0.04555717611146519,0.018287768129803712,5.572882920316447e-06,8.980932073861513,0.5056454902070965,1.0229285497868759
0.046198826479232305,0.018271671027137663,4.1770386948844396e-06,8.955089180507438,0.49297116157030535,1.0218586791760187
0.04684047684699942,0.018255610013775573,3.260647660986753e-06,8.926916726339831,0.4806144979087476,1.0207937310098323
0.04748212721476654,0.018239588704961625,2.617704900689408e-06,8.896269447986576,0.4685675485188206,1.0197341147488839
0.04812377758253365,0.018223611121376698,2.145180160194434e-06,8.862997376278223,0.45682255682879264,1.0186802745910142
0.04876542795030077,0.018207681734313134,1.7858332720830913e-06,8.82694656804308,0.44537195811379543,1.0176326920946808
0.049407078318067885,0.018191805515415556,1.5053274940886244e-06,8.78796001841747,0.43420837583469024,1.0165918889505434
0.050048728685835,0.018175987991299127,1.2818222295958083e-06,8.745878772566567,0.4233246174950299,1.0155584299005647
0.050690379053602116,0.01816023530330587,1.1007677568817355e-06,8.700543253217296,0.4127136703409979,1.0145329258015494
0.05133202942136923,0.01814455427260016,9.521016904392263e-07,8.651794817399256,0.40236869703865863,1.0135160368273552
0.05197367978913635,0.018128952470725334,8.286466288281797e-07,8.599477551709928,0.3922830313892933,1.0125084758007927
0.052615330156903464,0.01811343829564032,7.251485750849923e-07,8.543440309995416,0.38245017411196575,1.0115110116425265
0.05325698052467058,0.018098021053123498,6.376758574113301e-07,8.48353899040401,0.3728637887077069,1.0105244729199587
0.053898630892437696,0.018082711043267,5.632301418641673e-07,8.419639040241588,0.3635176974123,1.009549751474081
0.05454028126020481,0.018067519651587934,4.994870744648756e-07,8.351618166944045,0.35440587724076417,1.0085878060966573
0.05518193162797193,0.018052459444049988,4.4461880455348894e-07,8.279369221902074,0.3455224561244886,1.007639666223707
0.055823581995739044,0.018037544265023405,3.9716973705945187e-07,8.20280321109065,0.33686170914074587,1.0067064356042432
0.05646523236350616,0.018022789336913664,3.5596777472985404e-07,8.121852372893093,0.32841805483360287,1.0057892958954775
0.057106882731273276,0.018008211359867358,3.20059760926959e-07,8.036473249770195,0.3201860516248298,1.0048895101273922
0.05774853309904039,0.017993828609625288,2.8866375984812596e-07,7.946649667290805,0.31216039431315556,1.0040084259707724
0.05839018346680751,0.017979661031251107,2.611332651602949e-07,7.852395522458335,0.30433591066007787,1.0031474787336645
0.059031833834574624,0.01796573032613374,2.369299988359944e-07,7.753757274307462,0.29670755806035853,1.0023081940020075
0.05967348420234174,0.017952060029363594,2.1560298913396773e-07,7.650816024539885,0.28927042029529554,1.0014921898311906
0.060315134570108855,0.01793867557433663,1.9677230151338753e-07,7.543689075612027,0.28201970436685375,1.000701178386898
0.06095678493787597,0.017925604348457434,1.8011626229666153e-07,7.432531288310391,0.27495073741074594,0.999936966926298
0.06159843530564309,0.01791287568988921,1.653613352331906e-07,7.317533211800304,0.26805896368657084,0.9992014581696593
0.0622400856734102,0.017900520924771575,1.52274023978662e-07,7.198922173263855,0.2613399416431433,0.998496649845113
0.06288173604117732,0.017888573367304945,1.406543523634928e-07,7.076962441297286,0.25478934105718487,0.9978246324589958
0.06352338640894443,0.017877068241591944,1.303305862952099e-07,6.951951214930749,0.24840294024357162,0.997187586362012
0.06416503677671155,0.017891939230838195,1.8004118188051146e-07,8.38655886170408,0.24217662333538062,0.9965877777002667
0.0645212805812751,0.017889517578244613,1.773814740814059e-07,8.233641084595554,0.23878740983686444,0.9965877776984942
0.06487752438583864,0.017887054825260797,1.7475899146862797e-07,8.079570760843147,0.23544562966134694,0.996587777942378
0.06523376819040219,0.017884552187669746,1.7217321146959339e-07,7.924495938285651,0.23215061896155748,0.996587778191945
0.06559001199496574,0.017882010934255503,1.696236204205836e-07,7.768565925630331,0.2289017231810187,0.9965877784474992
0.06594625579952929,0.017879432423077476,1.6710971184691156e-07,7.611933429913594,0.22569829692401835,0.9965877787093635
0.06630249960409283,0.01787681809829141,1.6463098636230759e-07,7.454753970751979,0.2225397038274008,0.9965877789778793
0.06665874340865638,0.017874169486486083,1.6218695156971304e-07,7.2971852708181695,0.2194253164341532,0.9965877792534101
0.06701498721321993,0.01787148819255625,1.5977712196346197e-07,7.139386627542253,0.21635451606876085,0.9965877795363418
0.06737123101778347,0.017868775895137655,1.57401018832832e-07,6.981518271311008,0.21332669271430632,0.9965877798270851
0.06772747482234702,0.017866034341634203,1.550581701669447e-07,6.823740715636965,0.21034124489128925,0.9965877801260781
0.06808371862691057,0.01786326534287202,1.5274811056099737e-07,6.666214104885927,0.2073975795381423,0.9965877804337869
0.06843996243147411,0.01786047076741874,1.5047038112380655e-07,6.5090975651894905,0.20449511189341862,0.9965877807507082
0.06879620623603766,0.017857652535609975,1.482245293866464e-07,6.352548564120463,0.20163326537962833,0.9965877810773726
0.06915245004060121,0.017854812613327477,1.4601010921336293e-07,6.196722284581115,0.198811471488702,0.9965877814143471
0.06950869384516475,0.01785195300557594,1.4382668071174658e-07,6.041771018145008,0.196029169669055,0.9965877817622386
0.0698649376497283,0.01784907574990688,1.4167381014614587e-07,5.887843582811159,0.19328580721423383,0.996587782121696
0.07022118145429185,0.017846182909739005,1.3955106985130505e-07,5.735084769777136,0.19058083915312038,0.9965877824934172
0.0705774252588554,0.017843276567624734,1.3745803814740792e-07,5.583634823427371,0.18791372814167362,0.9965877828781491
0.07093366906341894,0.017840358818512262,1.3539429925631204e-07,5.433628958267681,0.1852839443561849,0.9965877832766954
0.07128991286798249,0.017837431763051553,1.3335944321895674e-07,5.285196916033378,0.18269096538802865,0.9965877836899218
0.07164615667254604,0.01783449750099098,1.3135306581392785e-07,5.13846256565913,0.18013427613988547,0.9965877841187607
0.07200240047710958,0.0178315581247094,1.2937476847716414e-07,4.9935435482417985,0.1776133687234171,0.9965877845642191
0.07235864428167313,0.017828615712925756,1.2742415822278987e-07,4.850550968558542,0.17512774235837494,0.9965877850273874
0.07271488808623668,0.017825672324625102,1.2550084756505714e-07,4.709589134133049,0.17267690327311863,0.9965877855094449
0.07307113189080022,0.017822729993236912,1.2360445444138353e-07,4.570755342286281,0.17026036460652874,0.9965877860116718
0.07342737569536377,0.017819790721097465,1.2173460213647001e-07,4.434139715067407,0.1678776463112909,0.9965877865354622
0.07378361949992732,0.017816856474224263,1.198909192074842e-07,4.299825081450397,0.16552827505853424,0.996587787082335
0.07413986330449086,0.01781392917742646,1.1807303941029562e-07,4.167886905705402,0.16321178414380422,0.9965877876539471
0.07449610710905441,0.017811010709771084,1.1628060162674802e-07,4.038393260418464,0.16092771339435155,0.996587788252115
0.07485235091361796,0.017808102900420415,1.1451324979295493e-07,3.911404842244038,0.15867560907771824,0.9965877888788321
0.0752085947181815,0.01780520752485209,1.1277063282860678e-07,3.7869750281351493,0.1564550238116035,0.9965877895362912
0.07556483852274505,0.017802326301469273,1.1105240456727564e-07,3.6651499695068823,0.15426551647499062,0.9965877902269141
0.0759210823273086,0.017799460888604367,1.0935822368770487e-07,3.545968721554123,0.15210665212051835,0.9965877909533829
0.07627732613187214,0.01779661288191612,1.0768775364607377e-07,3.429463404761301,0.14997800188807783,0.9965877917186762
0.07663356993643569,0.017793783812176677,1.0604066260922523e-07,3.3156593955107287,0.14787914291961957,0.9965877925261164
0.07698981374099924,0.017790975143441756,1.0441662338884613e-07,3.204575542614001,0.1458096582751522,0.9965877933794214
0.07734605754556279,0.017788188271594636,1.0281531337659305e-07,3.09622440655691,0.14376913684991696,0.9965877942827724
0.07770230135012633,0.017785424523251755,1.012364144801553e-07,2.9906125182560017,0.14175717329272136,0.99658779524089
0.07805854515468988,0.017782685155015982,9.967961306024993e-08,2.887740654173803,0.13977336792541617,0.9965877962591315
0.07841478895925343,0.01777997135306155,9.814459986854716e-08,2.7876041247237704,0.13781732666349863,0.9965877973436101
0.07877103276381697,0.017777284233033302,9.663106998652706e-08,2.6901930730102013,0.13588866093782742,0.9965877985013429
0.07912727656838052,0.017774624840241886,9.513872276527468e-08,2.5954927810923705,0.13398698761743325,0.9965877997404367
0.07948352037294407,0.017771994150135858,9.366726176622833e-08,2.503483981126847,0.13211192893340942,0.9965878010703253
0.07983976417750761,0.017769393069031473,9.221639470290622e-08,2.414143168928561,0.13026311240386776,0.9965878025020747
0.08019600798207116,0.017766822435081323,9.078583338365561e-08,2.327442917696158,0.1284401707599447,0.9965878040487804
0.08055225178663471,0.017764283019463967,8.937529365549295e-08,2.2433521898695297,0.12664274187284325,0.9965878057260944
0.08090849559119825,0.017761775527778863,8.798449534914599e-08,2.1618366453325812,0.12487046868189562,0.9965878075529351
0.0812647393957618,0.01775930060163444,8.66131622254768e-08,2.0828589444513312,0.12312299912363305,0.996587809552464
0.08162098320032535,0.017756858820423622,8.52610219235769e-08,2.006379044771491,0.12139998606184786,0.9965878117534532
0.0819772270048889,0.017754450703292766,8.392780591102683e-08,1.9323544906434786,0.11970108721863479,0.9965878141922541
0.08233347080945244,0.017752076711332068,8.261324943717237e-08,1.8607406957150767,0.11802596510639718,0.9965878169157135
0.08268971461401599,0.017749737250060005,8.131709149096917e-08,1.7914912194131272,0.11637428696080461,0.9965878199856439
0.08304595841857954,0.017747432672371347,8.003907476636919e-08,1.724558040916997,0.11474572467468927,0.9965878234859491
0.08340220222314308,0.017745163282347765,7.877894564135595e-08,1.659891839605378,0.1131399547328672,0.9965878275345704
0.08375844602770663,0.017742929340933966,7.753645418430559e-08,1.5974423052789752,0.11155665814787123,0.9965878323047717
0.08411468983227018,0.01774073107629919,7.631135422200984e-08,1.5371585447455118,0.10999552039658471,0.9965878380661368
0.08447093363683372,0.017738568708252987,7.510340357025543e-08,1.4789898087365785,0.10845623135776057,0.9965878452721683
0.08482717744139727,0.017736442526806315,7.391236480191564e-08,1.4228875091256765,0.10693848525041585,0.9965878547767174
0.08518342124596082,0.017734353289613553,7.273800864510837e-08,1.3688150108931738,0.10544198057308792,0.9965878685010257
0.08553966505052436,0.017732308879378645,7.15801578768868e-08,1.316912768312936,0.10396642004394115,0.9965878924749718
0.08589590885508791,0.01773089191764524,7.044197106799064e-08,1.281502317262326,0.10251151054171213,0.996587980661901
0.08625215265965146,0.017729987778374607,6.932851978605408e-08,1.2577983088440718,0.1010769630475279,0.9965918114539947
0.086608396464215,0.017729263126565985,6.824154446150873e-08,1.2363321632682311,0.09966249258751772,0.9966022277318506
0.08696464026877855,0.017728733555448448,6.718098046329603e-08,1.2171808753664883,0.09826781817615542,0.9966199273211331
0.0873208840733421,0.017728424514491636,6.614731945438392e-08,1.2005665049980057,0.09689266276041548,0.996645871526339
0.08767712787790564,0.01772837233923221,6.514189493583666e-08,1.186819600838145,0.09553675316474415,0.9966814510493036
0.08803337168246919,0.017728629925436702,6.416739048944855e-08,1.1764242440616588,0.09419982003680431,0.9967287445568372
