Time [s],Lmtc [m],STIM [ ],Fsee [N],Gamma [ ],Lcerel [ ]
0.0,0.021124156205993942,0.9999998301788735,0.7518712554074234,0.06238623025133605,1.229422338734111
0.0017673344612947847,0.021164617970633803,0.9999998327555166,1.7167996711914404,0.0906787183773693,1.229422338725292
0.0035346689225895693,0.021184759179830415,0.9999998213049287,2.5596951363331377,0.11811748081989902,1.2289928806678678
0.0053020033838843544,0.021173565705091407,0.9999997905815591,3.3544367988404007,0.14472827832610696,1.2267895390989219
0.007069337845179139,0.021142738129790103,0.9999997459155399,4.017631858103431,0.17053609415440793,1.2236137545896952
0.008836672306473923,0.021099671539225436,0.9999996898831232,4.540066222418018,0.19556515785428888,1.219893685512469
0.010604006767768707,0.021048833478450983,0.999999624411138,4.943014147370635,0.21983896792637694,1.2158543555151515
0.012371341229063491,0.020993008011252277,0.9999995511857883,5.255523415889842,0.24338031386224082,1.211620428933694
0.014138675690358276,0.020933939538053097,0.999999471730757,5.5027287879254905,0.26621129753147627,1.2072645034190554
0.01590601015165306,0.020872733770186596,0.999999387413581,5.703358809079864,0.28835335392579425,1.2028308635571936
0.017673344612947846,0.020810104214546637,0.9999992994417175,5.870583692353583,0.3098272712773469,1.1983476378888518
0.019440679074242632,0.020746520952295802,0.9999992088628923,6.0134877053450335,0.33065321056986585,1.1938333092736064
0.021208013535537418,0.020682300267522512,0.999999116571402,6.1383303431920595,0.35085072446106197,1.189300363490477
0.022975347996832204,0.020617659191831117,0.9999990233188369,6.249459318390189,0.3704387756342316,1.1847574226347095
0.02474268245812699,0.02055274926598344,0.9999989297273127,6.3499321353488165,0.38943575459642743,1.1802105413100974
0.026510016919421776,0.02048767786419812,0.9999988363036624,6.441930128545965,0.4078594969399682,1.1756640215442151
0.02827735138071656,0.02042252195289353,0.9999987434535211,6.5270332014431025,0.42572730008351045,1.1711209408922185
0.030044685842011348,0.020357337157891193,0.9999986514946393,6.606403060453387,0.44305593950838446,1.1665835039847154
0.031812020303306134,0.020292163862663942,0.9999985606690575,6.680906601096316,0.4598616845053991,1.1620532821800686
0.033579354764600916,0.02022703138926418,0.9999984711539838,6.751199984004406,0.47616031344685644,1.1575313804230576
0.0353466892258957,0.020161960916492343,0.9999983830713421,6.817786663927356,0.49196712859805913,1.1530185556221393
0.03711402368719048,0.02009696755068058,0.9999982964960421,6.88105796849879,0.5072969704821703,1.1485153020471404
0.038881358148485264,0.020032061817700897,0.9999982114630589,6.941321843847548,0.5221642318118626,1.1440219138599168
0.040648692609780046,0.019967250753067167,0.9999981279734391,6.998823475325751,0.5365828710007935,1.1395385315131845
0.04241602707107483,0.01990253870860964,0.9999980459993449,7.05376025969557,0.5505664252675528,1.1350651765890472
0.04418336153236961,0.019837927956381972,0.9999979654882524,7.106292802277621,0.5641280233443534,1.1306017782341904
0.045950695993664394,0.019773419145556775,0.9999978863664067,7.156553083632241,0.5772803978023596,1.1261481934066415
0.047718030454959176,0.01970901165140456,0.999997808541628,7.204650587872316,0.5900358970052052,1.1217042225107552
0.04948536491625396,0.019644703844137457,0.9999977319055477,7.2506769470985875,0.6024064967019005,1.1172696215578215
0.05125269937754874,0.019580493297607936,0.999997656335346,7.294709494432488,0.6144038112699879,1.1128441116829784
0.053020033838843524,0.019516376952415895,0.9999975816950459,7.336814006409398,0.6260391046194885,1.1084273866320087
0.054787368300138306,0.01945235124413544,0.9999975078364131,7.377046837629639,0.637323300767864,1.1040191186760098
0.05655470276143309,0.019388412204626268,0.9999974345994932,7.415456595722163,0.6482669940959014,1.0996189632991276
0.05832203722272787,0.019324555542408854,0.9999973618128193,7.452085465660286,0.6588804592941463,1.0952265629218567
0.060089371684022654,0.01926077670663248,0.9999972892933015,7.4869702644448175,0.6691736610092084,1.0908415498612078
0.061856706145317436,0.01919707093809516,0.9999972168458111,7.520143286855697,0.6791562631989849,1.0864635486832837
0.06362404060661223,0.019133433309978198,0.9999971442624588,7.551632988117537,0.6888376382055786,1.0820921780693191
0.06539137506790701,0.019069858760359777,0.9999970713215559,7.581464538369238,0.6982268755544194,1.077727052290012
0.0671587095292018,0.019006342118119218,0.9999969977862437,7.609660275684114,0.7073327904878391,1.0733677823628827
0.0689260439904966,0.018942878123497674,0.9999969234027588,7.636240078286505,0.7161639322411063,1.0690139769518834
0.07069337845179138,0.018879461434145033,0.9999968478982953,7.661221055370118,0.7247285920686788,1.0646652430564316
0.07246071291308617,0.018816084806668833,0.9999967709784083,7.684506605565664,0.7330348110281995,1.0603211865276168
0.07422804737438096,0.01875274144591499,0.999996692323887,7.7060281072789545,0.7410903875295314,1.0559814124418985
0.07599538183567575,0.018689425887809245,0.9999966115870051,7.7257987237884365,0.7489028846559059,1.0516455253567452
0.07776271629697054,0.01862613262762672,0.9999965283870318,7.743830190602254,0.7564796372640441,1.0473131294679758
0.07953005075826533,0.018562856123745593,0.9999964423048511,7.760132942209549,0.7638277588698938,1.042983828684835
0.08129738521956012,0.01849959079998822,0.999996352876501,7.7747162194500214,0.7709541483264315,1.0386572266357978
0.08306471968085491,0.018436331046767198,0.9999962595853865,7.78758816070769,0.7778654962997601,1.0343329266156787
0.0848320541421497,0.018373071221212543,0.9999961618528537,7.798755879529466,0.7845682915495613,1.0300105314826142
0.08659938860344449,0.01830980564642348,0.9999960590267197,7.80822553078659,0.7910688270197476,1.0256896435118912
0.08836672306473928,0.018246528609960812,0.9999959503672314,7.816002367110997,0.7973732057449857,1.0213698642122386
0.09013405752603407,0.01818323436167388,0.9999958350297619,7.8220907870280065,0.8034873465785638,1.0170507941091071
0.09190139198732886,0.01811991711093766,0.9999957120433308,7.826494375955585,0.8094169897468996,1.012732032498545
0.09366872644862365,0.0180565710233602,0.999995580283728,7.8292159410366375,0.8151677022357932,1.008413177174504
0.09543606090991844,0.017993190217007918,0.999995438439588,7.8302575406039585,0.8207448830133404,1.004093824131772
0.09720339537121322,0.017929769351961715,0.9999952849704599,7.829656903904318,0.8261537680942153,0.9997735672461695
0.09897072983250801,0.017866301611611863,0.9999951180604736,7.82733221091332,0.8313994354498799,0.995452033265185
0.1007380642938028,0.017802780898572113,0.9999949355491841,7.823141630392945,0.8364868097692283,0.9911289653381841
0.1025053987550976,0.0177392037553121,0.9999947348322823,7.817084682513635,0.8414206670734857,0.986804130101864
0.10427273321639238,0.017675566669594914,0.9999945127369919,7.809160398985819,0.8462056391888645,0.9824772917569975
0.10604006767768717,0.017611866073406417,0.999994265354694,7.799367333275915,0.850846218080496,0.9781482119907918
0.10780740213898196,0.017548098341635048,0.9999939878109285,7.787703568899035,0.8553467600505322,0.9738166498867065
0.10957473660027675,0.01748425979051483,0.9999936739436103,7.774166725984892,0.8597114898026317,0.9694823618223982
0.11134207106157154,0.017420346675841167,0.9999933158436687,7.7587539662816605,0.8639445043740933,0.9651451013563137
0.11310940552286633,0.01735635519096681,0.9999929031842097,7.74146199673555,0.8680497769354706,0.9608046191033311
0.11487673998416112,0.017292281464582757,0.9999924222151595,7.7222870717607,0.872031160455294,0.9564606625997386
0.11664407444545591,0.017228121558287193,0.9999918542111179,7.701224994293581,0.8758923912238731,0.9521129761577382
0.1184114089067507,0.017163871463943298,0.999991172990867,7.678271115708087,0.8796370922239348,0.947761300709569
0.12017874336804549,0.017099527100825154,0.9999903407889943,7.653420334650249,0.883268776324699,0.9434053736412622
0.12194607782934028,0.017035084312549333,0.999989301043361,7.6266670948340956,0.8867908492550065,0.9390449286159656
0.12371341229063507,0.016970538863787802,0.9999879650280216,7.59800538181972,0.8902066122690928,0.9346796953866953
0.12548074675192986,0.016905886436756487,0.9999861851886251,7.567428718765281,0.8935192643285745,0.9303093995983337
0.12724808121322465,0.016841122627471422,0.9999836966798316,7.534930161093379,0.8967319034140057,0.9259337625786151
0.12901541567451943,0.01677624294176257,0.9999799718912007,7.5005022899045795,0.8998475260327533,0.9215525011178659
0.13078275013581422,0.016711242791031776,0.9999737870351816,7.464137203718047,0.902869022352099,0.9171653272373418
0.132550084597109,0.016646117487738827,0.9999615085729172,7.425826507602292,0.905799158401116,0.9127719479464695
0.1343174190584038,0.016580862240681896,0.9999254107994734,7.385561301827648,0.9086405071030262,0.90837206499146
0.1360847535196986,0.016515510437986648,0.3147427083775162,7.345605102172581,0.9113950288753451,0.903965374613954
0.13785208798099338,0.0164498210210974,2.569901122279884e-05,7.290005008131226,0.8711015482711735,0.8995538182659525
0.13961942244228817,0.016383873902128848,1.0703301207199659e-05,7.220420131105134,0.8122755338095323,0.8951411280345545
0.14138675690358296,0.016317799597352876,5.8906764786242665e-06,7.142540133245852,0.7574212257927285,0.8907298115185524
0.14315409136487775,0.016251595943483667,3.631465417536123e-06,7.054870830358597,0.7062710891812949,0.8863216356541359
0.14492142582617254,0.01618526250851761,2.3808103675908154e-06,6.955637379420885,0.6585751412269315,0.8819188876402099
0.14668876028746733,0.016118801764303654,1.6224498792588635e-06,6.842771609756133,0.6141001770309849,0.8775245014946577
0.14845609474876212,0.016052220941724947,1.1357436860559479e-06,6.713924503191668,0.5726287059435575,0.8731422129532285
0.1502234292100569,0.015985534900618728,8.112375473252035e-07,6.566520003640404,0.5339579102913871,0.8687767481495331
0.1519907636713517,0.0159187704476327,5.889425155068501e-07,6.397870093107171,0.49789866197094335,0.8644340521144374
0.1537580981326465,0.01585197262147316,4.335778548237156e-07,6.20537216875487,0.46427460128614095,0.8601215635862185
0.15552543259394128,0.015785213486054807,3.232938059719548e-07,5.986804632710018,0.432921276323336,0.8558485427278207
0.15729276705523607,0.015718603852089924,2.440239265363592e-07,5.740720911252048,0.40368533968564807,0.8516264577841136
0.15906010151653086,0.015652307997636776,1.864412206388762e-07,5.466912603166955,0.3764237990931236,0.8474694349637978
0.16082743597782564,0.015586560818706133,1.442189931463669e-07,5.16687082900994,0.35100331838683435,0.8433947721394917
0.16259477043912043,0.015521685960990694,1.129891626436056e-07,4.844132540765985,0.3272995656210771,0.8394235104748858
0.16436210490041522,0.01545811261530381,8.969380439948792e-08,4.504378592160386,0.3051966051107605,0.8355810487913519
0.16612943936171,0.015396388316210432,7.216845990565557e-08,4.155180488069391,0.28458633049208676,0.8318977775252931
0.1678967738230048,0.015337185962806735,5.886729931958356e-08,3.805384939656298,0.2653679360424186,0.8284097195115835
0.1696641082842996,0.015281305799486618,4.867825053296559e-08,3.464243941502587,0.2474474236851391,0.8251592350391928
0.17143144274559438,0.015229675957608324,4.079770254023736e-08,3.140438452324049,0.23073714327564998,0.822196015582613
0.17319877720688917,0.015183352622393027,3.464652539720786e-08,2.841003225150584,0.2151553639249448,0.8195786635330636
0.17496611166818396,0.015143501408213411,2.981321993249098e-08,2.5700035109915214,0.20062587426747683,0.8173761612832955
0.17673344612947875,0.015124156205983785,1.2549152014896626e-07,2.776798201486601,0.18707760972044535,0.8156647077282407
0.177204871624543,0.015120730396395748,1.2298784563354248e-07,2.6531562724513984,0.18362090583477259,0.8156647077258837
0.17767629711960722,0.01511734257197947,1.205304386151646e-07,2.533653152594361,0.1802280761875712,0.8156647100711132
0.17814772261467146,0.015113995537450286,1.1811844076507131e-07,2.418292924036664,0.17689794048730478,0.8156647125992045
0.1786191481097357,0.015110691737946007,1.1575101302291846e-07,2.307058669523108,0.17362934025229557,0.8156647153328819
0.17909057360479994,0.015107433418140274,1.1342733183653083e-07,2.1999205011547014,0.17042113840771403,0.8156647182989423
0.17956199909986417,0.015104222624067312,1.1114658887638565e-07,2.096836650805914,0.167272218890015,0.8156647215292839
0.1800334245949284,0.015101061206210093,1.0890799075574134e-07,1.9977545695494785,0.16418148625868365,0.8156647250622784
0.18050485008999265,0.015097950823725406,1.0671075875647106e-07,1.9026120226513263,0.1611478653151555,0.815664728944636
0.18097627558505688,0.01509489294968764,1.045541285607588e-07,1.8113381684773535,0.15817030072877844,0.815664733233999
0.18144770108012112,0.015091888877250404,1.0243734998897369e-07,1.7238546115907698,0.15524775666968588,0.8156647380026264
0.18191912657518536,0.01508893972665816,1.0035968674432384e-07,1.6400764225021676,0.15237921644845465,0.8156647433427772
0.1823905520702496,0.015086046453103094,9.832041616542483e-08,1.5599131192260294,0.14956368216242025,0.8156647493748189
0.18286197756531383,0.015083209855550986,9.631882898897614e-08,1.4832696096789755,0.14680017434852857,0.8156647562599199
0.18333340306037807,0.015080430586944334,9.435422912698098e-08,1.4100471008553512,0.14408773164260205,0.8156647642208086
0.1838048285554423,0.015077709166891617,9.242593346812269e-08,1.3401439959405053,0.14142541044490198,0.8156647735776591
0.18427625405050654,0.015075045999906396,9.053327172621639e-08,1.273456841403317,0.13881228459187056,0.8156647848145963
0.18474767954557078,0.015072441408655357,8.867558639808085e-08,1.2098815192791244,0.13624744503393899,0.815664798714572
0.18521910504063502,0.015069895717743286,8.68522330361391e-08,1.149315427167747,0.13372999951928877,0.8156648166687676
0.18569053053569926,0.015067409572707323,8.506258175352588e-08,1.0916645585213955,0.13125907228345704,0.8156648415257204
0.1861619560307635,0.015064986399805268,8.330602782036882e-08,1.0368965189282104,0.12883380374467684,0.8156648807107953
0.18663338152582773,0.015062847805506263,8.158273105131425e-08,0.9897145618482637,0.12645335020484783,0.8156649676827209
0.18710480702089197,0.015061669026595236,7.989555763782123e-08,0.9636047503232704,0.12411688355604575,0.8156668311540253
0.1875762325159562,0.015060805753993184,7.824671918375081e-08,0.9418164680879458,0.12182359099249175,0.815677445454587
0.18804765801102044,0.015060239860606919,7.663606069550667e-08,0.923281588299785,0.11957267472778096,0.8156985881022366
0.18851908350608468,0.01506002595352622,7.506398528110749e-08,0.9084176328131985,0.1173633517173053,0.8157323228227062
0.18899050900114892,0.015060252986365477,7.353221796648474e-08,0.8979547964090453,0.11519485338585918,0.8157820328188741
0.18946193449621315,0.015061069614359312,7.204520214969932e-08,0.8930861481805571,0.11306642536029277,0.8158536722361964
0.1899333599912774,0.015062729142126191,7.061399668253224e-08,0.8954854517562395,0.11097732720713162,0.8159588462404297
0.19040478548634163,0.015065601571868974,6.92665021848194e-08,0.9049468200788514,0.10892683217511594,0.8161235321280719
0.19087621098140586,0.015070134366672526,6.805341631281778e-08,0.911608652183126,0.10691422694268671,0.8164106146721113
0.1913476364764701,0.015077473548096397,6.701678318181148e-08,0.907876747486512,0.10493881137024796,0.816922809536224
0.19181906197153434,0.01508873174763528,6.616170146016903e-08,0.8985026645349072,0.10299989825642536,0.8177205202445073
0.19229048746659858,0.015104234016403827,6.547182292628232e-08,0.8874695747609643,0.10109681309830637,0.8188130186924669
0.1927619129616628,0.015123959722419561,6.49279741909271e-08,0.8764372917206895,0.09922889385639684,0.8201934877394704
0.19323333845672705,0.015147785181640342,6.45131768515336e-08,0.8660559763239839,0.09739549072426516,0.8218513315780998
0.1937047639517913,0.015175557910086727,6.421330361785707e-08,0.8565672610540881,0.09559596590253536,0.8237753141708078
0.19417618944685552,0.015207120572576348,6.401682217154764e-08,0.8480371784259377,0.09382969337706915,0.8259544465866824
0.19464761494191976,0.015242319475896542,6.391439610787859e-08,0.8404525458613157,0.09209605870124178,0.8283782559918771
0.195119040436984,0.015281007669789268,6.389851488897269e-08,0.8337641741835181,0.0903944587822335,0.8310368565293761
0.19559046593204824,0.015323045951401642,6.396318581267757e-08,0.8279075091413951,0.08872430167126365,0.833920949434121
0.19606189142711247,0.015368302992248681,6.410368655457374e-08,0.8228129196494985,0.08708500635769467,0.837021796675808
0.1965333169221767,0.015416655085473373,6.431636913296749e-08,0.8184109257238108,0.08547600256693658,0.8403311852149469
0.19700474241724095,0.015467985732696619,6.45985056986771e-08,0.8146348295336784,0.0838967305620821,0.8438413889443828
0.19747616791230518,0.015522185172460224,6.494816794287997e-08,0.8114219661359583,0.08234664094920426,0.8475451313489357
0.19794759340736942,0.015579149899271037,6.536413356579454e-08,0.8087142044724415,0.0808251944862496,0.8514355501671819
0.19841901890243366,0.015638782196930094,6.584581471765314e-08,0.8064580383561647,0.07933186189546129,0.8555061645428478
0.1988904443974979,0.01570098969719791,6.63932045261781e-08,0.804604456005813,0.07786612367926657,0.8597508447791431
0.19936186989256213,0.015765684968353136,6.700683878252928e-08,0.8031086950374919,0.0764274699395657,0.8641637846327312
0.19983329538762637,0.015832785134810054,6.768777061698404e-08,0.8019299442925358,0.07501540020035917,0.8687394760034848
0.2003047208826906,0.015902211527193375,6.843755660314614e-08,0.8010310278275258,0.07362942323365214,0.8734726858437228
0.20077614637775484,0.015973889361376958,6.925825322525986e-08,0.8003780911827296,0.07226905688857571,0.8783584351025415
0.20124757187281908,0.016047747444580283,7.015242305986615e-08,0.7999403010373148,0.07093382792366544,0.8833919795250126
0.20171899736788332,0.016123717906470016,7.112315038708346e-08,0.7996895639801758,0.06962327184223943,0.8885687921361205
0.20219042286294756,0.016201735953213434,7.217406628024507e-08,0.799600266909606,0.06833693273081852,0.8938845472519493
0.2026618483580118,0.016281739642509015,7.330938354459306e-08,0.799649039667522,0.06707436310053276,0.899335105874022
0.20313327385307603,0.016363669677738064,7.453394220388324e-08,0.7998145394070066,0.06583512373145899,0.90491650233589
0.20360469934814027,0.01644746921951717,7.585326658565842e-08,0.8000772555768302,0.06461878351983574,0.9106249320835809
0.2040761248432045,0.016533083713072057,7.727363545039842e-08,0.8004193340946276,0.06342491932810243,0.916456740483113
0.20454755033826874,0.016620460729991186,7.880216706824465e-08,0.8008244191538736,0.06225311583771053,0.9224084125589057
0.20501897583333298,0.01670954982304865,8.044692169541803e-08,0.8012775110952537,0.06110296540465674,0.9284765635765448
0.20549040132839722,0.01680030239290839,8.22170245732382e-08,0.8017648388237922,0.059974067917687154,0.9346579303920666
0.20596182682346145,0.01689267156563435,8.412281340764136e-08,0.8022737453404968,0.05886603065912386,0.9409493634977284
0.2064332523185257,0.01698661208003474,8.617601534134342e-08,0.8027925850624738,0.057778468168266144,0.9473478197012695
0.20690467781358993,0.01708208018396192,8.83899597780146e-08,0.8033106317173448,0.0567110021073188,0.9538503553819297
0.20737610330865416,0.017179033538774563,9.077983515799512e-08,0.8038179957093722,0.05566326112980223,0.9604541202721363
0.2078475288037184,0.01727743113124556,9.33630000554549e-08,0.8043055499618114,0.05463488075139852,0.9671563517188111
0.20831895429878264,0.017377233192268023,9.615936195811995e-08,0.8047648633405258,0.05362550322318978,0.9739543693827472
0.20879037979384688,0.0174784011217741,9.919184107050732e-08,0.80518814085655,0.05263477740724626,0.9808455703385508
