Time [s],Lmtc [m],STIM [ ],Fsee [N],Gamma [ ],Lcerel [ ]
0.0,0.022630237204384666,0.9999997866525978,1.4735569118261538,0.08926431038194141,1.3298758298902134
0.002798432466910013,0.02260081917019161,0.9999997058437499,2.5662477958219294,0.13239431581477856,1.32545767872005
0.005596864933820026,0.02252531176524171,0.9999995752246127,3.3849931775288034,0.1734817952866191,1.318833524678357
0.008395297400730039,0.022430787510945016,0.9999994083883912,3.9387235395695135,0.21262347502565213,1.3114928475688488
0.011193729867640051,0.02232827324357565,0.999999217436204,4.329101289623546,0.24991150120736577,1.303911110802898
0.013992162334550064,0.022222586670651728,0.9999990127004516,4.628489456814769,0.2854336567829782,1.2962705232919343
0.016790594801460078,0.02211590151849646,0.999998802412276,4.8756287900084,0.31927356802635276,1.2886493188766759
0.019589027268370092,0.02200924461667512,0.9999985927907304,5.090586870889415,0.3515109012836513,1.2810831616415357
0.022387459735280106,0.02190311680947736,0.9999983883283564,5.284100537972143,0.38222155040967437,1.2735882978150113
0.02518589220219012,0.021797762476812223,0.9999981921257692,5.462209675290375,0.411477815341236,1.2661714138667246
0.027984324669100134,0.021693294116831355,0.9999980062050399,5.6284977504871145,0.43934857222962664,1.2588342470269767
0.03078275713601015,0.021589753586421248,0.9999978317755137,5.785203511558414,0.4658994355308971,1.251575901236439
0.03358118960292016,0.021487143875640703,0.9999976694474014,5.933795181913036,0.4911929124325644,1.2443940749007534
0.03637962206983018,0.021385446353434815,0.9999975193978504,6.075279973326534,0.5152885499771978,1.2372857381445084
0.03917805453674019,0.021284630472320896,0.9999973814973302,6.210377944867918,0.5382430752264868,1.2302475168426243
0.041976487003650205,0.02118465938232332,0.9999972554043807,6.33962348993787,0.5601105287934992,1.2232759139067533
0.04477491947056022,0.02108549324136122,0.999997140635842,6.463426714756719,0.5809423920556933,1.2163674372538698
0.04757335193747023,0.02098709118743051,0.9999970366184068,6.582111789829787,0.6007877083467843,1.2095186729011131
0.05037178440438025,0.020889412513295857,0.9999969427261128,6.695941644617773,0.6196931984117333,1.2027263251912819
0.05317021687129026,0.020792417356209892,0.9999968583073277,6.805134317224331,0.6377033703958679,1.195987237093879
0.055968649338200276,0.02069606708820847,0.9999967827039274,6.90987406278345,0.6548606246264884,1.1892983983700771
0.05876708180511029,0.02060032451969463,0.9999967152646967,7.010319085222978,0.671205353433206,1.182656946372591
0.061565514272020304,0.020505153986104,0.9999966553544689,7.1066070418025316,0.6867760362416911,1.1760601624435367
0.06436394673893031,0.02041052136155165,0.9999966023601358,7.198859045914594,0.701609330164466,1.169505465768103
0.06716237920584033,0.020316394027415252,0.9999965556943665,7.287182636244307,0.7157401563018445,1.1629904058546126
0.06996081167275034,0.020222740813813873,0.9999965147976584,7.371674020549432,0.7292017819560652,1.1565126543782303
0.07275924413966035,0.020129531925579217,0.9999964791391794,7.4524198009803335,0.7420258989520805,1.1500699968492683
0.07555767660657037,0.02003673886021323,0.9999964482167448,7.529498322345231,0.7542426982493191,1.1436603243894026
0.07835610907348038,0.019944334322652538,0.9999964215561774,7.602980741597488,0.765880941020035,1.1372816257843357
0.0811545415403904,0.01985229213990305,0.9999963987102362,7.672931887942616,0.7769680263615454,1.1309319799071123
0.08395297400730041,0.019760587177446765,0.9999963792572493,7.739410963313143,0.7875300558017463,1.1246095485582859
0.08675140647421042,0.01966919525855255,0.9999963627995463,7.802472119385997,0.7975918947497513,1.1183125697383576
0.08954983894112044,0.019578093087111895,0.9999963489617616,7.86216493780525,0.8071772310363237,1.1120393513484739
0.09234827140803045,0.019487258174282523,0.9999963373890565,7.918534833516308,0.8163086306819016,1.1057882653034057
0.09514670387494047,0.019396668769001504,0.9999963277452915,7.971623396254904,0.8250075910235222,1.0995577420338047
0.09794513634185048,0.01930630379228581,0.999996319711171,8.021468681691063,0.8332945913257015,1.0933462653509396
0.1007435688087605,0.01921614277514811,0.9999963129823689,8.06810546111512,0.8411891409944374,1.0871523676454238
0.10354200127567051,0.019126165799900348,0.9999963072676396,8.111565436603675,0.8487098255078304,1.080974625391102
0.10634043374258052,0.019036353444586693,0.9999963022869096,8.151877427132915,0.8558743501714692,1.07481165492575
0.10913886620949054,0.018946686730271715,0.9999962977693424,8.18906752998546,0.8626995818015833,1.0686621084812176
0.11193729867640055,0.01885714655982771,0.9999962934513613,8.223127157384836,0.8692015884341026,1.0625246704368965
0.11473573114331057,0.018767710099189535,0.9999962890746115,8.253788129160215,0.8753956771531074,1.056398053771728
0.11753416361022058,0.018678358361326048,0.9999962843838383,8.28100166611108,0.881296430127728,1.0502809966913347
0.1203325960771306,0.018589073708023186,0.9999962791246496,8.304785762852664,0.8869177389423318,1.0441722594081548
0.12313102854404061,0.018499838701337198,0.9999962730411286,8.325155917741222,0.8922728373008192,1.038070621053656
0.12592946101095062,0.01841063606262939,0.9999962658732487,8.342125205913108,0.8973743321820156,1.031974876702768
0.12872789347786062,0.018321448632523614,0.9999962573540399,8.355704340558198,0.9022342335195094,1.0258838344916141
0.13152632594477062,0.01823225933155123,0.9999962472064361,8.365901723300215,0.9068639824757903,1.019796312810373
0.13432475841168062,0.018143051121251093,0.9999962351397242,8.372723484386244,0.9112744783772586,1.0137111375537222
0.13712319087859062,0.01805380696549323,0.9999962208454899,8.376173513241284,0.915476104373491,1.0076271394117629
0.13992162334550062,0.01796451012879825,0.9999962039934086,8.376274845100287,0.919478751881161,1.0015431511845738
0.14272005581241062,0.017875144266965043,0.9999961842338058,8.37304952338519,0.9232918438701632,0.9954580355669164
0.14551848827932062,0.017785691291821178,0.9999961611980948,8.366130760463943,0.9269243570470851,0.9893709566675796
0.14831692074623062,0.017696140661452392,0.9999961344828161,8.355492954831817,0.9303848429881539,0.9832812287320661
0.15111535321314062,0.017606482052860545,0.9999961036386615,8.34113083260821,0.9336814482706275,0.9771881617754243
0.15391378568005062,0.01751670499882189,0.9999960681606103,8.323037599442618,0.9368219336502952,0.9710910603639904
0.15671221814696062,0.017426798872903132,0.9999960274758902,8.301204930030076,0.9398136923303126,0.9649892226645206
0.15951065061387062,0.017336752873755426,0.9999959809291292,8.275622953869682,0.9426637673643119,0.9588819394638792
0.16230908308078063,0.017246556008620316,0.9999959277638585,8.246280237230078,0.9453788682346321,0.9527684931555921
0.16510751554769063,0.017156197075974072,0.9999958670992342,8.213163761256386,0.9479653866445849,0.9466481566892936
0.16790594801460063,0.01706566464722801,0.9999957979004288,8.1762588961245,0.9504294115617298,0.940520192478714
0.17070438048151063,0.01697494704739327,0.999995718940546,8.135549371119396,0.9527767435473409,0.9343838512635031
0.17350281294842063,0.016884032334608185,0.9999956287510432,8.091017240484971,0.9550129084054642,0.9282383709197537
0.17630124541533063,0.0167929082784148,0.9999955255563602,8.042642844861833,0.9571431701832448,0.9220829752136336
0.17909967788224063,0.016701562336658426,0.9999954071865105,7.990404768097517,0.959172543552497,0.9159168724920117
0.18189811034915063,0.016609981630869405,0.9999952709584073,7.934279789178758,0.9611058056007757,0.9097392543033874
0.18469654281606063,0.016518152919969997,0.9999951135120093,7.874242828998794,0.962947507058435,0.9035492939417783
0.18749497528297063,0.016426062572130914,0.9999949305798044,7.810266891631947,0.9647019829862448,0.8973461449055092
0.19029340774988063,0.01633369653458032,0.999994716655652,7.742322999743585,0.9663733629459522,0.8911289392619937
0.19309184021679063,0.01624104030114436,0.9999944645076366,7.670380123714696,0.9679655806735095,0.8848967859086982
0.19589027268370063,0.016148078877270027,0.9999941644418606,7.594405104005721,0.9694823832711346,0.8786487687194088
0.19868870515061063,0.01605479674224916,0.999993803154717,7.514362566223323,0.9709273399291979,0.8723839445637344
0.20148713761752063,0.01596117780832523,0.9999933618776409,7.430214828284662,0.9723038501807059,0.8661013411864332
0.20428557008443063,0.01586720537632113,0.9999928132471595,7.34192179899487,0.9736151516770202,0.8597999549315944
0.20708400255134063,0.015772862087376043,0.9999921157462208,7.249440867262112,0.9748643274471135,0.8534787482949626
0.20988243501825063,0.015678129870320162,0.9999912031914286,7.152726781065555,0.9760543125498021,0.847136647285682
0.21268086748516063,0.015582989884146931,0.9999899632162764,7.051731515156673,0.9771878999131018,0.8407725385764625
0.21547929995207063,0.015487422454959869,0.9999881884726254,6.94640412629159,0.9782677448780727,0.8343852664185463
0.21827773241898063,0.015391407006673576,0.9999854493802742,6.83669059451074,0.979296367216541,0.8279736292949411
0.22107616488589063,0.01529492198463112,0.9999806874206499,6.722533648466585,0.9802761470270831,0.8215363762821967
0.22387459735280063,0.01519794477116581,0.99997039959938,6.603872571946949,0.9812093015650314,0.8150722030880911
0.22667302981971063,0.015100451592255447,0.999931943433885,6.480642999965351,0.9820977771915926,0.8085797477335886
0.22947146228662063,0.015002517305517622,5.92793209128608e-05,6.358293010195342,0.982942355816574,0.8020575858980431
0.23226989475353063,0.014903414715045256,1.0189313429489194e-05,6.191067503625979,0.8799305455803292,0.7955132722102587
0.23506832722044063,0.014803748334623404,4.266223480204633e-06,6.003993431262912,0.787709931578292,0.7889585444207161
0.23786675968735063,0.014703487696353205,2.1927637395339817e-06,5.79147283724228,0.7051540468976337,0.7823998812676936
0.24066519215426063,0.014602606471018504,1.2386550889047655e-06,5.54660050104193,0.6312503653713192,0.7758466413081591
0.24346362462117063,0.014501096036421258,7.407997932747585e-07,5.261570365879142,0.5650921943398319,0.7693120234591773
0.24626205708808063,0.01439899490934897,4.6197509097702184e-07,4.92885127246122,0.5058677992294415,0.7628142882961666
0.24906048955499063,0.014296444153643279,2.9858380239274884e-07,4.543465277027842,0.45285049593052895,0.7563783027585264
0.25185892202190063,0.01419377717445581,1.9966322656812838e-07,4.106316659541283,0.40538975093289714,0.7500375019757839
0.25465735448881066,0.014091641243718511,1.3815851766813642e-07,3.6275958966149786,0.3629032057393371,0.7438364180579369
0.2574557869557207,0.013991128404741534,9.895784522121828e-08,3.128230845135007,0.32486953416440295,0.7378340265573784
0.2602542194226307,0.013893887455112813,7.331428332818994e-08,2.6375680972770876,0.2908220469830619,0.7321085278954431
0.26305265188954075,0.01380224184031479,5.6029192763338085e-08,2.1877487847563337,0.2603429662712231,0.7267663205535911
0.2658510843564508,0.013719417224656449,4.398680751321008e-08,1.8054160412192846,0.23305829953927804,0.7219659469274364
0.2686495168233608,0.013649785751762204,3.540203322846774e-08,1.4971891900332217,0.20863325093786592,0.7179687292351744
0.27144794929027083,0.01359820016206906,2.923616054917309e-08,1.2441079759017637,0.1867681133217753,0.7151272198656958
0.27424638175718086,0.0135667244640448,2.46544996403542e-08,1.0318365176273032,0.16719459079236376,0.7136023289608953
0.2770448142240909,0.013550017441684862,2.094448464474214e-08,0.8258329908519346,0.1496725066058023,0.7131299082729132
0.2798432466910009,0.013538202286737687,1.4163560436891107e-07,0.6074005387220034,0.13398685610643166,0.7131298317506088
0.28037814755742424,0.013544860718922982,1.3853594941986612e-07,0.7263918794153378,0.13118135840685216,0.7131298317506083
0.28091304842384757,0.013547124834982547,1.3562868066105427e-07,0.7317175199447745,0.1284346082939511,0.7132646887041854
0.2814479492902709,0.01355092904302584,1.3294831879921113e-07,0.738750182022177,0.1257453755861989,0.7134983633672144
0.2819828501566942,0.013557239172223925,1.3058399117206902e-07,0.7370875726763927,0.12311245586302211,0.7139342983470579
0.28251775102311755,0.013567436931880488,1.285596702202516e-07,0.7292481109437036,0.12053466992650817,0.7146575577791823
0.2830526518895409,0.013582024422342577,1.2684458093896456e-07,0.7196378803982314,0.11801086327187331,0.7156865356263693
0.2835875527559642,0.013601005060483189,1.2539779821243865e-07,0.7101098121824085,0.11553990556923738,0.7170147548666811
0.2841224536223875,0.013624239761754187,1.2418270757235627e-07,0.701335457608783,0.11312069015718462,0.7186302434697263
0.28465735448881085,0.01365155324412887,1.231688988186311e-07,0.6935333388954418,0.11075213354723147,0.7205201948639399
0.2851922553552342,0.013682765685478472,1.223315552030536e-07,0.6867395465521534,0.10843317493871094,0.7226721641589438
0.2857271562216575,0.013717703078424334,1.2165049059846434e-07,0.680913922161751,0.1061627757438027,0.7250743935863481
0.28626205708808083,0.013756200637067152,1.211092719097278e-07,0.6759852951005617,0.10393991912248893,0.7277158800550557
0.28679695795450416,0.013798103661062365,1.2069449882780674e-07,0.671871986410128,0.10176360952722954,0.7305863574643785
0.2873318588209275,0.013843267402021613,1.2039523056322074e-07,0.6684914159220747,0.09963287225715721,0.7336762502780204
0.2878667596873508,0.01389155653454777,1.2020253343665979e-07,0.6657645895273527,0.09754675302159607,0.7369766189496122
0.28840166055377414,0.013942844485509273,1.2010912401798445e-07,0.6636180676913788,0.09550431751270982,0.7404791051935892
0.28893656142019747,0.013997012733620397,1.201090869030052e-07,0.6619846601912686,0.09350465098709225,0.7441758802310658
0.2894714622866208,0.014053950129599568,1.2019765071478474e-07,0.6608034721848135,0.09154685785611295,0.7480595971275757
0.2900063631530441,0.014113552258672262,1.2037100967842166e-07,0.6600196268952363,0.08963006128483669,0.7521233474707243
0.29054126401946745,0.014175720853532622,1.2062618106854331e-07,0.659583838275283,0.08775340279933769,0.7563606222574304
0.2910761648858908,0.014240363259218115,1.2096089108729143e-07,0.6594519270976719,0.08591604190223359,0.7607652767028883
0.2916110657523141,0.01430739194812918,1.2137348344610154e-07,0.6595843306326424,0.08411715569626846,0.7653314986286303
0.29214596661873743,0.014376724081945048,1.2186284622718962e-07,0.6599456321229696,0.08235593851577568,0.7700537800806181
0.29268086748516076,0.014448281116607361,1.224283535932196e-07,0.6605041228414148,0.08063160156585646,0.7749268918441535
0.2932157683515841,0.01452198844643158,1.230698196742072e-07,0.6612314019628415,0.07894337256911307,0.779945860547781
0.2937506692180074,0.014597775083533243,1.2378746254762356e-07,0.6621020152711377,0.07729049541977838,0.7851059480768486
0.29428557008443074,0.014675573368999108,1.245818766842122e-07,0.6630931314348748,0.07567222984508733,0.7904026330458992
0.29482047095085406,0.014755318712524296,1.2545401259041264e-07,0.6641842534179302,0.07408785107373889,0.7958315941060142
0.2953553718172774,0.014836949357539545,1.2640516266251604e-07,0.6653569620729813,0.07253664951129979,0.8013886948880277
0.2958902726837007,0.014920406169148172,1.2743695249580268e-07,0.66659468882074,0.07101793042240521,0.807069970404936
0.29642517355012404,0.015005632442469849,1.2855133707759113e-07,0.6678825143817816,0.06953101361961413,0.8128716147568678
0.29696007441654737,0.015092573729244111,1.2975060144680383e-07,0.6692069907033094,0.06807523315877996,0.818789969999811
0.2974949752829707,0.015181177680778929,1.3103736553243155e-07,0.6705559834516227,0.06664993704080002,0.824821516055094
0.298029876149394,0.015271393905538444,1.324145929955285e-07,0.6719185326883721,0.06525448691961099,0.830962861550547
0.29856477701581735,0.015363173839851607,1.3388560399922081e-07,0.6732847295949433,0.06388825781629855,0.8372107354966164
0.2990996778822407,0.015456470630389955,1.3545409192289695e-07,0.674645607343769,0.06255063783919451,0.8435619797115365
0.299634578748664,0.015551239027211557,1.3712414412387857e-07,0.6759930444323822,0.06124102790983496,0.8500135419192635
0.30016947961508733,0.015647435286299822,1.3890026693566316e-07,0.6773196789933066,0.05995884149465787,0.8565624694523211
0.30070438048151066,0.01574501708064268,1.4078741517927397e-07,0.6786188327702806,0.05870350434231903,0.8632059034991482
0.301239281347934,0.015843943419001392,1.427910265562785e-07,0.6798844436090715,0.057474454226509555,0.86994107384214
0.3017741822143573,0.015944174571610036,1.4491706139166593e-07,0.6811110054511319,0.05627114069415957,0.8767652940383798
0.30230908308078064,0.016045672002128072,1.4717204830524365e-07,0.68229351494164,0.05509302481891517,0.8836759570001977
0.30284398394720397,0.016148398305240442,1.4956313651517046e-07,0.6834274238719192,0.05393957895977885,0.8906705309372468
0.3033788848136273,0.01625231714936387,1.5209815562086543e-07,0.6845085967714846,0.052810286524804836,0.8977465556258192
0.3039137856800506,0.016357393223974545,1.5478568387979876e-07,0.6855332730483864,0.05170464173974428,0.9049016389746931
0.30444868654647395,0.01646359219112273,1.576351261895439e-07,0.6864980331495538,0.05062214942153612,0.9121334538599667
0.3049835874128973,0.016570880640745012,1.6065680322027445e-07,0.6873997682769114,0.04956232475654319,0.9194397352041702
0.3055184882793206,0.016679226049424057,1.6386205342265567e-07,0.6882356532509601,0.04852469308343346,0.9268182772774229
0.3060533891457439,0.016788596742281676,1.6726334997309964e-07,0.6890031221625366,0.0475087896806102,0.9342669312006538
0.30658829001216725,0.016898961857722307,1.7087443512682533e-07,0.6896998464964701,0.046514159558095965,0.9417836026328743
0.3071231908785906,0.01701029131477204,1.7471047494708774e-07,0.6903237154483314,0.04554035725377706,0.9493662496262661
0.3076580917450139,0.01712255578278353,1.7878823798927946e-07,0.6908728181885453,0.04458694663391817,0.9570128806344252
0.30819299261143723,0.01723572665329941,1.8312630227086505e-07,0.6913454278569858,0.043653500697857846,0.9647215526605157
0.30872789347786056,0.017349776013886764,1.8774529579040687e-07,0.6917399870965075,0.042739601386798186,0.9724903695333407
0.3092627943442839,0.01746467662377323,1.926681770209121e-07,0.6920550949562554,0.041844839396603356,0.9803174803004823
0.3097976952107072,0.017580401891131116,1.9792056325936593e-07,0.692289495015028,0.040968813994524185,0.9882010777286555
0.31033259607713054,0.01769692585181768,2.035311165237476e-07,0.6924420636313805,0.04011113283976737,0.9961393969023421
0.31086749694355387,0.017814223146960257,2.095319973188623e-07,0.6925117570874221,0.03927141180783013,1.0041307138969473
0.3114023978099772,0.01793226899625644,2.1595940106389048e-07,0.6924975769702428,0.03844927481852265,1.0121733440915006
0.3119372986764005,0.018051039190527737,2.2285420373206264e-07,0.6923987372223103,0.03764435366760331,1.020265641039171
0.31247219954282385,0.018170510076992205,2.3026273381644057e-07,0.6922145656262263,0.036856287861952754,1.0284059958339122
0.3130071004092472,0.0182906585432866,2.3823770032676955e-07,0.6919444821936829,0.036084724458215735,1.0365928361041348
0.3135420012756705,0.01841146200303958,2.4683931705549603e-07,0.6915879928916612,0.03532931790484125,1.0448246250544884
0.31407690214209383,0.018532898382274968,2.561366732592751e-07,0.691144683864082,0.03458972988745385,1.0530998605621378
0.31461180300851715,0.018654946106578994,2.6620941606447996e-07,0.6906142160984279,0.03386562917749179,1.0614170743232343
0.3151467038749405,0.01877759057653783,2.7714983046567196e-07,0.6901143719694849,0.03315669148404974,1.0697748310456523
0.3156816047413638,0.018900841225776333,2.8906543092535403e-07,0.6901914522332568,0.03246259930886757,1.0781717276843863
0.31621650560778714,0.019024682141878163,3.0208221753832354e-07,0.6909223576882351,0.031783041804410064,1.0866063927162892
