Time [s],Lmtc [m],STIM [ ],Fsee [N],Gamma [ ],Lcerel [ ]
0.0,0.022545879889816173,0.9999998202969794,1.0390541865645344,0.06387971744392515,1.3253387589314332
0.0024551685919988455,0.022569716707486663,0.99999979807093,1.6394636975175223,0.10288898208308737,1.3253387589190766
0.004910337183997691,0.02250639411795537,0.9999997235777924,2.499276869962969,0.14027268223532316,1.319155295823626
0.007365505775996537,0.02241959160591178,0.9999996194143921,3.1698454072078643,0.17609855497430996,1.3120003888484255
0.009820674367995382,0.022321808031171963,0.9999994926250778,3.6560875471555336,0.21043151562900672,1.3045191573507064
0.012275842959994229,0.022219042427671917,0.9999993502068163,4.018293573824183,0.24333377472110795,1.296942374357042
0.014731011551993075,0.022114256305505342,0.9999991982685977,4.30433439155698,0.2748649506756822,1.2893670070042846
0.01718618014399192,0.022008920177178815,0.999999041782116,4.543078782234804,0.30508217779999197,1.2818372725950762
0.019641348735990768,0.021903778489609116,0.9999988846079815,4.751035698577573,0.3340402097523157,1.2743738081072438
0.022096517327989614,0.021799212111316083,0.9999987296340449,4.937750695210457,0.36179151870019016,1.2669857383951733
0.02455168591998846,0.021695412563183684,0.9999985789447496,5.108924421638738,0.38838639035237266,1.2596762261840244
0.027006854511987307,0.02159246901162721,0.9999984339844119,5.2680962626145496,0.4138730150377616,1.2524452355891513
0.029462023103986153,0.021490413630750178,0.9999982956996689,5.417553077731527,0.43829757499575306,1.2452909924705782
0.031917191695984996,0.021389246247617115,0.9999981646572856,5.558830714516993,0.4617043280350361,1.23821079084002
0.03437236028798384,0.021288948220167515,0.9999980411384994,5.6929991293721445,0.4841356877111348,1.2312014523424555
0.03682752887998269,0.02118949048640874,0.9999979252130188,5.8208296594552795,0.5056323001667852,1.2242595933946432
0.039282697471981536,0.02109083834140569,0.9999978167962407,5.942896225885998,0.5262331177733636,1.217381781897196
0.04173786606398038,0.020992954318193594,0.9999977156930329,6.059638383165072,0.5459754697059721,1.2105646287965808
0.04419303465597923,0.020895799939976954,0.9999976216309595,6.171401692980751,0.564895129579397,1.2038048404088963
0.046648203247978075,0.020799336785157385,0.9999975342853109,6.278464249707574,0.5830263802669816,1.1970992467686639
0.04910337183997692,0.02070352712636408,0.999997453297822,6.381054530183981,0.6004020760194578,1.1904448152094564
0.05155854043197577,0.020608334301729484,0.999997378290556,6.479363677452211,0.6170537019959925,1.1838386548380735
0.054013709023974614,0.02051372291629415,0.9999973088760977,6.573554133401084,0.6330114313150803,1.177278015437216
0.05646887761597346,0.020419658935162566,0.9999972446649351,6.663765826278747,0.6483041797284808,1.1707602830286954
0.05892404620797231,0.020326109707774452,0.9999971852707045,6.750120688614739,0.6629596580171354,1.1642829735167426
0.06137921479997115,0.020233043948731738,0.9999971303138123,6.8327260141313,0.6770044222038982,1.1578437253166463
0.06383438339196999,0.020140431691766058,0.9999970794238247,6.9116769933096025,0.690463921673995,1.151440291544469
0.06628955198396884,0.020048244227717116,0.9999970322409201,6.98705865838407,0.7033625452903419,1.145070532130426
0.06874472057596769,0.019956454033659036,0.9999969884166322,7.058947397099577,0.7157236655872452,1.138732406079696
0.07119988916796653,0.019865034697847662,0.9999969476140501,7.127412146923888,0.7275696811225216,1.1324239640136664
0.07365505775996538,0.0197739608435221,0.999996909507603,7.192515349139679,0.7389220570647709,1.1261433410652473
0.07611022635196422,0.019683208053494723,0.9999968737825249,7.254313720065809,0.7498013640893092,1.119888750163139
0.07856539494396307,0.0195927527967258,0.9999968401340674,7.312858881206734,0.7602273156532484,1.113658475714943
0.08102056353596192,0.01950257235758098,0.9999968082665095,7.368197879222485,0.7702188037172356,1.107450867683058
0.08347573212796076,0.019412644768135177,0.999996777891998,7.420373618816755,0.7797939329785901,1.1012643360374514
0.08593090071995961,0.019322948743662343,0.9999967487292388,7.469425226002779,0.7889700536778523,1.0950973455635862
0.08838606931195846,0.019233463621301537,0.9999967205020498,7.515388355083406,0.7977637930381885,1.0889484110006076
0.0908412379039573,0.019144169301792812,0.9999966929377742,7.55829544963237,0.8061910853946196,1.0828160924835324
0.09329640649595615,0.019055046194113887,0.9999966657655481,7.598175965485511,0.8142672010676606,1.0766989912628666
0.095751575087955,0.01896607516281073,0.9999966387144053,7.6350565620309405,0.8220067740336883,1.0705957456755368
0.09820674367995384,0.018877237455970086,0.9999966115111939,7.668959942960598,0.8294238284421719,1.0645050273418502
0.10066191227195269,0.018788511058550224,0.9999965838782734,7.699686243061087,0.8365318040278119,1.0584255375642577
0.10311708086395154,0.018699875296993105,0.9999965555309452,7.7270943646958,0.8433435804636277,1.0523560039048563
0.10557224945595038,0.018611312431662592,0.9999965261745628,7.751202856758227,0.8498715006991177,1.0462951769197137
0.10802741804794923,0.018522804934290784,0.999996495501249,7.772027783436256,0.8561273933257642,1.0402418270292
0.11048258663994807,0.01843433544684815,0.9999964631861301,7.789582807640561,0.8621225940104109,1.0341947415045107
0.11293775523194692,0.01834588674134403,0.9999964288829758,7.803879261308396,0.8678679660353208,1.028152721551449
0.11539292382394577,0.01825744168033059,0.9999963922190988,7.814926203748852,0.8733739199821284,1.0221145794732844
0.11784809241594461,0.018168983177884138,0.9999963527893336,7.822730468971966,0.878650432595326,1.0160791358950982
0.12030326100794346,0.018080494160837804,0.9999963101488618,7.82729670275528,0.8837070648594278,1.0100452170324732
0.1227584295999423,0.017991957570758978,0.9999962638046183,7.828629885860356,0.8885529793225448,1.0040116519876616
0.12521359819194114,0.01790335780278316,0.9999962132088344,7.8268229291156155,0.8931969566977059,0.9979772733745598
0.12766876678393999,0.017814675100859535,0.9999961577591838,7.821558238206247,0.8976474117721085,0.9919410896018883
0.13012393537593883,0.01772589658184547,0.9999960967792211,7.812684556534639,0.9019124086534207,0.9859023951222213
0.13257910396793768,0.017637011945342576,0.9999960294933722,7.8001973001768565,0.905999675379937,0.9798605001123523
0.13503427255993652,0.017548010746952464,0.9999959550040896,7.784090385594052,0.9099166179208654,0.9738147094492025
0.13748944115193537,0.017458882383449805,0.9999958722632865,7.764356222194637,0.9136703335922577,0.9677643217644099
0.13994460974393422,0.017369616077215204,0.9999957800357663,7.740985700965244,0.9172676239126876,0.9617086284694989
0.14239977833593306,0.01728020085986393,0.9999956768518613,7.713968179178008,0.9207150069216965,0.9556469127480361
0.1448549469279319,0.017190625554998135,0.999995560945336,7.683291461147153,0.9240187289829399,0.9495784485108523
0.14731011551993076,0.017100878760001378,0.9999954301708749,7.6489417749743245,0.9271847760928904,0.94350249931006
0.1497652841119296,0.01701094882678466,0.9999952818928277,7.610903745189692,0.9302188847148624,0.9374183172072296
0.15222045270392845,0.016920823841382673,0.9999951128327724,7.569160361163528,0.9331265521569289,0.9313251415906686
0.1546756212959273,0.016830491602286668,0.9999949188568942,7.523692941129989,0.9359130465110257,0.9252221979362666
0.15713078988792614,0.016739939597387815,0.9999946946734639,7.474481091631017,0.9385834161690242,0.9191086965058848
0.159585958479925,0.016649154979389673,0.9999944333926563,7.421502662152606,0.941142498929648,0.9129838309766782
0.16204112707192384,0.016558124539531646,0.999994125869579,7.36473369468755,0.9435949307075515,0.9068467769940879
0.16449629566392268,0.01646683467944647,0.9999937596947532,7.304148367917994,0.9459451538521068,0.9006966906405449
0.16695146425592153,0.016375271380952766,0.9999933175895841,7.239718935665713,0.9481974250774634,0.8945327068110805
0.16940663284792037,0.016283420173558917,0.9999927747530375,7.171415659208073,0.9503558229952961,0.8883539374861464
0.17186180143991922,0.016191266099425984,0.9999920942618564,7.099206733000392,0.9524242552230855,0.8821594698909012
0.17431697003191807,0.016098793675503955,0.9999912186262699,7.023058203278258,0.9544064650045126,0.8759483645290428
0.1767721386239169,0.01600598685251751,0.9999900531455396,6.942933878930528,0.9563060372020911,0.8697196530779491
0.17922730721591576,0.015912828970432318,0.9999884299788491,6.858795233921258,0.9581264033464905,0.8634723361303792
0.1816824758079146,0.0158193027099801,0.9999860206247357,6.77060130036323,0.9598708449782606,0.8572053807663172
0.18413764439991345,0.01572539003975725,0.9999820831846812,6.678308551009242,0.9615424932032398,0.8509177179366912
0.1865928129919123,0.015631072158334678,0.9999745134593607,6.581870769167665,0.9631443177347705,0.8446082396389069
0.18904798158391115,0.015536329430748747,0.9999540618348829,6.481238903437503,0.9646790768509644,0.8382757958633941
0.19150315017591,0.015441141323626801,0.9996887231740658,6.376361170280606,0.9661490284504383,0.8319191912998086
0.19395831876790884,0.015345556860199193,2.4643489634878308e-05,6.271050886235043,0.9675466685697589,0.8255371822811345
0.19641348735990768,0.015248945484105056,8.747569525585664e-06,6.1275418331671645,0.8779874314728062,0.8191342282737757
0.19886865595190653,0.015151792662180679,4.34420904514912e-06,5.968044462101763,0.7967169113397807,0.812716838901182
0.20132382454390538,0.015054047885968525,2.4474714229753523e-06,5.788709819280586,0.7229689141660598,0.8062874553921383
0.20377899313590422,0.014955651324780389,1.4741540202731727e-06,5.584800501427684,0.6560473380834803,0.7998495648232199
0.20623416172790307,0.014856534918527972,9.265659861200079e-07,5.350788131970954,0.5953203704126758,0.7934079511305746
0.20868933031990192,0.014756627805364917,6.009304487095454e-07,5.0807496400484125,0.540214637116598,0.7869689733636649
0.21114449891190076,0.014655869632876038,4.000464576664313e-07,4.769237475482768,0.49020982054413026,0.7805408620881594
0.2135996675038996,0.01455423595893096,2.7280607801832003e-07,4.412755936309448,0.4448337580494749,0.7741340241159387
0.21605483609589846,0.014451778643856716,1.9051901386706452e-07,4.011769472444411,0.40365798871673064,0.767761352534362
0.2185100046878973,0.014348679225963923,1.3633116947015097e-07,3.5727544630124646,0.36629371011722167,0.761438560271932
0.22096517327989615,0.014245305284209472,1.0001641165821818e-07,3.109342499157883,0.33238810835632554,0.7551846075484631
0.223420341871895,0.014142256287904671,7.521926217128241e-08,2.641575903424838,0.3016210273530441,0.749022462742921
0.22587551046389384,0.014040406285241804,5.7908828611172306e-08,2.1932079794656847,0.2737019461776024,0.742981220697946
0.2283306790558927,0.013941019082944074,4.547804761266025e-08,1.7881093412710334,0.24836723604332023,0.7371040521062908
0.23078584764789153,0.013846086906344977,3.6240870588345166e-08,1.445256278903085,0.22537767112586773,0.7314760889446257
0.23324101623989038,0.013758910251519818,2.9200389505354797e-08,1.1691876519220563,0.20451616975081727,0.7262887103740749
0.23569618483188923,0.013684232075903826,2.3840196708452904e-08,0.945682462998062,0.1855857446501767,0.7218777799805154
0.23815135342388807,0.01362619175191707,1.977461573020862e-08,0.7603671655696629,0.16840764293726235,0.7185484235265542
0.24060652201588692,0.013584966237919428,1.658888115303172e-08,0.6109139742739782,0.15281965822527965,0.7163019035211806
0.24306169060788577,0.013557173514573561,1.3949305506222337e-08,0.4960007518326117,0.13867459897244644,0.7148894329864702
0.2455168591998846,0.013545879889868028,1.1108324480312475e-07,0.5138795764059382,0.12583889861730047,0.7140417287246262
0.2459801514787697,0.013560696757832759,1.0924532632301567e-07,0.7728824231423816,0.12355353379652165,0.7140417287223046
0.24644344375765478,0.01357350577411951,1.0786969115897923e-07,0.7645571064301957,0.12130967687120899,0.7149439528375352
0.24690673603653987,0.013589841108387683,1.066663702111614e-07,0.7560769754835123,0.11910657396278426,0.7160871433614361
0.24737002831542496,0.013609624209224595,1.0561491693850681e-07,0.7480825505703971,0.11694348487971905,0.7174636567577986
0.24783332059431004,0.013632742173920982,1.0469771065595504e-07,0.740826568883897,0.1148196828738392,0.7190648621546628
0.24829661287319513,0.013659073349405379,1.0389991322492546e-07,0.7343898310077568,0.11273445439621091,0.7208821409165566
0.2487599051520802,0.013688496770424417,1.0320911375327755e-07,0.7287737360911636,0.11068709885746054,0.7229072089910478
0.2492231974309653,0.013720895802541105,1.026149452666197e-07,0.723942573791584,0.10867692839244053,0.725132217065174
0.24968648970985038,0.013756159490929877,1.0210874410437377e-07,0.7198440090363155,0.1067032676291626,0.7275497695578151
0.2501497819887355,0.013794182930229965,1.0168326437604519e-07,0.7164194269557674,0.10476545346192218,0.7301529120893808
0.2506130742676206,0.013834867197961072,1.0133244352318666e-07,0.7136092741533301,0.10286283482853759,0.7329351067703342
0.25107636654650567,0.013878119092688098,1.0105121122150307e-07,0.7113558107946728,0.10099477249163114,0.7358902034236842
0.25153965882539076,0.013923850790415013,1.0083533384313677e-07,0.7096044745690593,0.0991606388238792,0.739012410304998
0.25200295110427584,0.013971979474687667,1.0068128773846501e-07,0.7083044827991081,0.09735981759715977,0.7422962659017676
0.2524662433831609,0.014022426968016435,1.0058615579716173e-07,0.7074090120316037,0.09559170377552749,0.7457366124831596
0.252929535662046,0.014075119378225198,1.0054754283310606e-07,0.7068751446101684,0.09385570331194681,0.7493285716367554
0.2533928279409311,0.01412998676605512,1.0056350624148251e-07,0.7066636904592154,0.0921512329487154,0.753067521817979
0.2538561202198162,0.014186962836485566,1.0063249910444703e-07,0.7067389467985647,0.09047772002151122,0.7569490778364494
0.25431941249870127,0.014245984654163586,1.0075332349983607e-07,0.7070684323467359,0.08883460226699748,0.7609690721573145
0.25478270477758636,0.014306992382236275,1.0092509222410861e-07,0.7076226172147689,0.08722132763392092,0.7651235378779825
0.25524599705647144,0.014369929043322488,1.0114719750139452e-07,0.7083746605369212,0.08563735409764082,0.7694086932377777
0.2557092893353565,0.014434740301106712,1.014192855360891e-07,0.7093001623699631,0.08408214947802561,0.7738209275227393
0.2561725816142416,0.0145013742609552,1.0174123599348082e-07,0.7103769330579934,0.08255519126065669,0.7783567882360891
0.2566358738931267,0.014569781287968847,1.0211314567440725e-07,0.7115847812500566,0.08105596642127909,0.7830129694147857
0.2570991661720118,0.0146399138409536,1.0253531579600264e-07,0.7129053205633696,0.07958397125344052,0.7877863009828239
0.25756245845089687,0.014711726320882428,1.0300824240903495e-07,0.7143217941961313,0.07813871119926045,0.7926737390419576
0.25802575072978196,0.01478517493252833,1.0353260957923042e-07,0.7158189164193905,0.0767197006832727,0.7976723570100226
0.25848904300866704,0.014860217558055364,1.0410928504008305e-07,0.7173827296982095,0.0753264629492859,0.802779337525802
0.2589523352875521,0.014936813641460421,1.0473931809168151e-07,0.7190004761332333,0.07395852990020664,0.8079919650474249
0.2594156275664372,0.01501492408285883,1.054239395770185e-07,0.7206604819271057,0.07261544194077209,0.8133076190785951
0.2598789198453223,0.015094511141700816,1.061645638164385e-07,0.7223520536356933,0.07129674782313879,0.8187237679635486
0.2603422121242074,0.015175538348092257,1.0696279242426799e-07,0.7240653850423573,0.07000200449527592,0.8242379631975749
0.26080550440309247,0.015257970421472578,1.0782041997084884e-07,0.7257914735826909,0.06873077695211248,0.8298478342052706
0.26126879668197756,0.015341773195974906,1.0873944148951329e-07,0.7275220453392985,0.06748263808938773,0.8355510835434978
0.26173208896086264,0.015426913551858913,1.0972206186268493e-07,0.7292494877168415,0.0662571685601565,0.84134548249029
0.2621953812397477,0.015513359352466245,1.1077070715532135e-07,0.7309667889941326,0.06505395663390078,0.8472288669848139
0.2626586735186328,0.015601079386201597,1.1188803799833637e-07,0.7326674840307282,0.06387259805820036,0.8531991338869228
0.2631219657975179,0.015690043313090957,1.1307696516042924e-07,0.7343456054799983,0.0627126959229162,0.8592542375279362
0.263585258076403,0.015780221615511607,1.1434066748489431e-07,0.7359956399284107,0.061573860526840954,0.8653921865270323
0.26404855035528807,0.015871585552727833,1.1568261240955766e-07,0.7376124884423485,0.060455709246771405,0.8716110408501365
0.26451184263417316,0.015964107118901096,1.1710657933412422e-07,0.739191431059117,0.0593578664089596,0.8779089090903909
0.26497513491305824,0.016057759004275224,1.1861668615124969e-07,0.7407280948084883,0.05827996316289909,0.8842839459513043
0.2654384271919433,0.01615251455926555,1.2021741931706596e-07,0.7422184248956758,0.05722163735740404,0.8907343499154643
0.2659017194708284,0.016248347761206393,1.2191366790547997e-07,0.7436586587163173,0.056182533418939404,0.897258361083301
0.2663650117497135,0.016345233183534407,1.237107621704445e-07,0.7450453024095073,0.055162302232161765,0.903854259167845
0.2668283040285986,0.01644314596720596,1.2561451723414084e-07,0.7463751096864891,0.05416060102263042,0.9105203616327193
0.26729159630748367,0.016542061794165397,1.276312826297328e-07,0.7476450627007074,0.053177093241649626,0.9172550219617767
0.26775488858636876,0.01664195686269777,1.2976799855890103e-07,0.7488523547499508,0.05221144845320322,0.9240566280498507
0.26821818086525384,0.016742807864514965,1.3203225988149434e-07,0.7499943746235829,0.05126334222294384,0.9309236007050438
0.2686814731441389,0.016844591963437495,1.3443238904326547e-07,0.7510686924276239,0.050332456009199444,0.9378543922538225
0.269144765423024,0.01694728677554693,1.3697751937520285e-07,0.7520730467381107,0.04941847705596095,0.9448474852409802
0.2696080577019091,0.017050870350694698,1.3967769047377234e-07,0.7530053329488278,0.04852109828781484,0.9519013912172096
0.2700713499807942,0.01715532115526342,1.4254395770726175e-07,0.753863592693473,0.047640018206785824,0.9590146496076798
0.27053464225967927,0.01726061805608565,1.4558851830445315e-07,0.7546460042347708,0.04677494079105509,0.9661858266555612
0.27099793453856436,0.017366740305433403,1.4882485698732867e-07,0.7553508737241288,0.0459255753955204,0.973413514434981
0.27146122681744944,0.01747366752699921,1.5226791473430867e-07,0.7559766272453238,0.045091636654164824,0.9806963299283452
0.2719245190963345,0.017581379702796055,1.5593428503689697e-07,0.7565218035645326,0.044272844384201884,0.988032914163397
0.2723878113752196,0.017689857160885347,1.5984244297485887e-07,0.7569850470510318,0.04346892349196515,0.9954219314057566
0.2728511036541047,0.017799080562267464,1.6401301290380477e-07,0.7573650719528949,0.04267960388051124,1.0028620683964848
0.2733143959329898,0.017909030883051087,1.6846908203429489e-07,0.7576606080154129,0.041904620358905985,1.0103520333342606
0.27377768821187487,0.01801968941184718,1.7323657472883886e-07,0.7578705652472123,0.041143712553163715,1.0178905551115711
0.27424098049075996,0.01813103774253529,1.7834469688540543e-07,0.7579939618707341,0.040396624818811046,1.0254763830819327
0.27470427276964504,0.018243057764704043,1.8382646505223254e-07,0.7580298965164952,0.039663106155046673,1.0331082865100762
0.2751675650485301,0.018355731655411,1.897193413135606e-07,0.7579775443361035,0.038942910120469965,1.0407850540263257
0.2756308573274152,0.018469041871459122,1.960659994786328e-07,0.7578361534216911,0.03823579475035153,1.0485054931148985
0.2760941496063003,0.01858297114215593,2.0291525534134106e-07,0.7576050415016404,0.03754152247542045,1.0562684296339437
0.2765574418851854,0.018697502462523774,2.103232034685229e-07,0.7572835928854388,0.03685986004214323,1.0640727073652705
