Time [s],Lmtc [m],STIM [ ],Fsee [N],Gamma [ ],Lcerel [ ]
0.0,0.02052800309190699,0.9999998713419238,1.9863996831044373,0.10937714792273395,1.1854325152119605
0.0012627956635857503,0.02052375367001295,0.9999998599665033,2.5561410981596353,0.12866333721514658,1.1839648513807843
0.0025255913271715006,0.02050582789464322,0.9999998429625565,3.0891588953014515,0.14753188915447216,1.1817556904375124
0.003788386990757251,0.02047865108571848,0.9999998210900358,3.5694422622260262,0.16599184744045425,1.179084887578646
0.005051182654343001,0.02044485445020033,0.9999997948170336,3.9879456664049107,0.18405205995047058,1.176112418493407
0.0063139783179287515,0.020406201512188322,0.9999997645359651,4.344309293671577,0.20172118297369254,1.1729358021854368
0.007576773981514502,0.02036395594835603,0.9999997306004296,4.644308389671785,0.2190076853582357,1.1696173755127435
0.008839569645100253,0.020319037793054433,0.9999996933356042,4.89621026721824,0.23591985256930406,1.166198305717024
0.010102365308686002,0.020272119649530938,0.999999653040507,5.1084554671589375,0.2524657906596804,1.162706557011901
0.011365160972271752,0.020223695016035305,0.9999996099873362,5.288580469388774,0.26865343015428694,1.1591616162645528
0.012627956635857501,0.02017412793553994,0.9999995644202533,5.442881169288243,0.28449052985061146,1.1555773768571804
0.01389075229944325,0.020123688869983024,0.9999995165545149,5.576434589346225,0.2999846805368104,1.1519639456761734
0.015153547963029,0.020072580419257684,0.9999994665761723,5.693259883868023,0.3151433086292787,1.1483288048106512
0.01641634362661475,0.02002095568570841,0.999999414642282,5.796511302462106,0.32997367973144304,1.1446775769477873
0.0176791392902005,0.019968931390325437,0.9999993608814863,5.8886576501259125,0.3444829021154935,1.14101454139316
0.01894193495378625,0.019916597274799164,0.9999993053948104,5.971633211204031,0.35867793012873334,1.1373429894571083
0.020204730617371998,0.019864022882259438,0.9999992482565426,6.0469585575313465,0.3725655675261817,1.1336654740559036
0.021467526280957747,0.01981126248519377,0.9999991895150897,6.115834774894914,0.3861524707310292,1.1299839881935039
0.022730321944543497,0.019758358697898968,0.9999991291937205,6.17921597793078,0.39944515202450753,1.1263000947030877
0.023993117608129246,0.019705345148967587,0.9999990672911323,6.23786477586586,0.4124499826666992,1.1226150219867463
0.025255913271714996,0.019652248476955257,0.9999990037817849,6.292394627615313,0.42517319594978,1.118929735642417
0.026518708935300745,0.019599089834590324,0.9999989386159571,6.3433022231221345,0.43762089018515005,1.115244992729655
0.027781504598886494,0.01954588603296836,0.9999988717194843,6.390992313346991,0.4497990316258834,1.1115613833589706
0.029044300262472244,0.01949265041965057,0.999998802993132,6.435796828723877,0.4617134573258833,1.1078793629045207
0.030307095926057993,0.019439393558322894,0.999998732311561,6.477989671585271,0.47336987793711327,1.1041992771971978
0.031569891589643746,0.019386123759166728,0.9999986595218266,6.517798222226977,0.4847738804462303,1.1005213824038016
0.0328326872532295,0.019332847495953404,0.999998584441346,6.555412338447062,0.4959309308519251,1.0968458608416882
0.03409548291681525,0.01927956973647216,0.9999985068552475,6.590991434451009,0.5068463767842409,1.0931728336544677
0.035358278580401005,0.019226294206118676,0.9999984265129966,6.624670080621003,0.5175254500671166,1.0895023710417109
0.03662107424398676,0.019173023599537712,0.9999983431241635,6.656562458131531,0.5279732692253608,1.085834500566626
0.03788386990757251,0.01911975975159647,0.9999982563531546,6.686765922189496,0.5381948419372518,1.082169213941554
0.039146665571158264,0.019066503776291946,0.999998165812689,6.715363867666884,0.5481950674339091,1.0785064725990774
0.04040946123474402,0.019013256180204552,0.9999980710557257,6.742428045822431,0.557978738846568,1.074846212287601
0.04167225689832977,0.018960016955616044,0.999997971565467,6.768020446810615,0.5675505455028497,1.0711883468782013
0.04293505256191552,0.018906785657280305,0.9999978667429418,6.792194836912367,0.5769150751730882,1.0675327715298546
0.044197848225501275,0.018853561349830968,0.9999977558915158,6.8149913781068046,0.586076816267747,1.0638793653297098
0.04546064388908703,0.01880034116589558,0.9999976381974572,6.836352007923912,0.595040159986914,1.060227993501483
0.04672343955267278,0.018747123122768505,0.9999975127053835,6.856279666422404,0.60380940242283,1.0565785092567095
0.047986235216258534,0.018693905575184435,0.999997378286993,6.874806020393962,0.6123887466163567,1.0529307553491796
0.04924903087984429,0.018640686666450232,0.9999972336008803,6.891958961893669,0.6207823045682321,1.0492845653815066
0.05051182654343004,0.018587464354361496,0.9999970770403636,6.907763107462042,0.6289940992059057,1.045639764903758
0.05177462220701579,0.01853423643298061,0.9999969066649729,6.9222402180809,0.6370280663066511,1.0419961723368556
0.053037417870601546,0.018481000550947257,0.9999967201093418,6.93540955371505,0.6448880563775514,1.0383535997476656
0.0543002135341873,0.01842775422687052,0.9999965144603358,6.947288173650851,0.652577836492801,1.0347118534980217
0.05556300919777305,0.01837449486225316,0.9999962860887391,6.957891191742846,0.6601010920885593,1.0310707347861066
0.056825804861358804,0.018321219752320424,0.9999960304146408,6.967231994002832,0.667461428715293,1.0274300400955576
0.05808860052494456,0.018267926095060776,0.9999957415739419,6.975322424620824,0.6746623737470951,1.0237895615650847
0.05935139618853031,0.018214610998734285,0.9999954119337301,6.9821729454242645,0.68170737804676,1.0201490872893286
0.06061419185211606,0.018161271488061383,0.9999950313701199,6.987792772906069,0.6885998175843138,1.0165084015599422
0.061876987515701816,0.018107904509269707,0.9999945861606802,6.992189996240772,0.6953429950048559,1.0128672850544602
0.06313978317928756,0.018054506934147528,0.9999940572280849,6.995371679127904,0.701940141138466,1.0092255149793052
0.06440257884287331,0.01800107556322843,0.9999934172436835,6.997343947826354,0.7083944164393782,1.0055828651722993
0.06566537450645907,0.01794760719690782,0.9999926256231302,6.998116048156805,0.7147089123312748,1.0019391061691862
0.06692817017004482,0.01789409913245839,0.999991619390051,6.997726557530569,0.7208866524150771,0.9982940082391624
0.06819096583363057,0.017840546163820758,0.9999902952917742,6.996029132628204,0.7269305934527406,0.9946473888869236
0.06945376149721633,0.017786945785701804,0.9999884714164032,6.992988942376972,0.7328436259424707,0.9909991189510241
0.07071655716080208,0.017733296141146358,0.9999857946096035,6.988608422217279,0.7386285738503199,0.9873490700801821
0.07197935282438783,0.017679595319372608,0.9999814769405414,6.982889483330553,0.7442881923427516,0.9836971113252081
0.07324214848797359,0.017625841357210355,0.9999733290843301,6.975833543169261,0.7498251598616057,0.9800431092019832
0.07450494415155934,0.017572032240201055,0.999952149878053,6.967441548508451,0.7552420494390529,0.9763869277416221
0.07576773981514509,0.01751816590556253,0.9997604460278525,6.957714112066203,0.7605411791423221,0.9727284285351523
0.07703053547873084,0.01746428586400201,3.244748530447491e-05,6.94928556688651,0.7657214064051404,0.9690674709123007
0.0782933311423166,0.017409979105327898,1.2295509426063604e-05,6.916771291069257,0.72840749887143,0.965405906184144
0.07955612680590235,0.0173556062351945,6.836573495371875e-06,6.879210612490711,0.6929110315810308,0.9617459107466936
0.0808189224694881,0.01730116160558086,4.364151124826985e-06,6.83597596248952,0.65914415107118,0.9580878961551869
0.08208171813307386,0.0172466392941566,2.992199792497932e-06,6.7863529170585055,0.6270227147609073,0.9544323771698902
0.08334451379665961,0.01719203319901371,2.1429317359748484e-06,6.729535745961038,0.5964665886860884,0.9507799896913206
0.08460730946024536,0.017137337198542154,1.5803731092123803e-06,6.664625756451154,0.5673995159017965,0.9471315115921636
0.08587010512383111,0.017082545407761038,1.190354796846183e-06,6.59063414733818,0.5397489442006316,0.9434878868890674
0.08713290078741687,0.01702765256782908,9.110476021039569e-07,6.506491340813933,0.5134458515052458,0.9398502537291629
0.08839569645100262,0.01697265461400375,7.061630617165376e-07,6.411065107156109,0.4884245763848335,0.9362199767147132
0.08965849211458837,0.01691754947582243,5.530853372520599e-07,6.303190031280125,0.4646226555250802,0.9325986841396636
0.09092128777817413,0.016862338169946804,4.370531368994477e-07,6.181710843630401,0.4419806685403422,0.9289883107606557
0.09218408344175988,0.016807026248433693,3.4807501361874157e-07,6.04554166597854,0.4204420900650786,0.9253911467684767
0.09344687910534563,0.01675162565982543,2.791885063882977e-07,5.893742094274158,0.3999531489030016,0.9218098936583272
0.09470967476893138,0.016696157063492995,2.2542630325370038e-07,5.725609066238084,0.3804626939554871,0.9182477277100818
0.09597247043251714,0.01664065260547469,1.8317569160135688e-07,5.540780558952072,0.36192206663332777,0.9147083717708651
0.09723526609610289,0.016585159114687296,1.4976723365708358e-07,5.339343477209393,0.3442849794550413,0.9111961759664566
0.09849806175968864,0.01652974161366852,1.2320246121236082e-07,5.121934126708471,0.32750740054141464,0.9077162078417681
0.0997608574232744,0.016474486965892356,1.0196881957778014e-07,4.8898163420108505,0.3115474437257163,0.9042743522499337
0.10102365308686015,0.01641950741835755,8.49110247561736e-08,4.64492093757317,0.2963652640101597,0.9008774211513602
0.1022864487504459,0.01636494376923919,7.113985751391424e-08,4.389832020555305,0.2819229581108289,0.8975332736288341
0.10354924441403165,0.01631096793132675,5.996637338813375e-08,4.127711745440991,0.26818446984491207,0.8942509476580769
0.10481204007761741,0.016257784816829962,5.08537175890777e-08,3.8621650620205252,0.25511550012550344,0.8910408093633769
0.10607483574120316,0.016205633783886172,4.3381365724464914e-08,3.59705780164103,0.24268342134028845,0.8879147363559703
0.10733763140478891,0.016154790379387832,3.7218324429390316e-08,3.3363105881142343,0.23085719590107806,0.8848863748670734
0.10860042706837467,0.016105569697948737,3.210299882628341e-08,3.0836912537593855,0.2196072987613711,0.8819715491727257
0.10986322273196042,0.016058332986129957,2.7828254897702135e-08,2.842614901186995,0.20890564370889395,0.879188943312703
0.11112601839554617,0.016013498273621064,2.423069424136379e-08,2.6159376682337587,0.19872551324940582,0.8765611607055706
0.11238881405913193,0.01597155233526778,2.1183197947520954e-08,2.405719208339016,0.18904149190696043,0.8741160625729587
0.11365160972271768,0.015933053875263937,1.8589291488369762e-08,2.212966478038161,0.1798294027742891,0.8718877170934859
0.11491440538630343,0.01589860809084071,1.6377184282987213e-08,2.03747528789161,0.1710662471550063,0.8699153848956613
0.11617720104988918,0.015868789779047245,1.4491662048049979e-08,1.8779790375476364,0.1627301471469458,0.8682384531858764
0.11743999671347494,0.01584401215352084,1.288456720784809e-08,1.732703126654008,0.1548002910231945,0.8668866854571227
0.11870279237706069,0.01582438622351821,1.1507851104230197e-08,1.6000603198875913,0.14725688127441364,0.8658692054338091
0.11996558804064644,0.015809653419394117,1.0312808888857121e-08,1.47901378641059,0.14008108518288004,0.865168930958532
0.1212283837042322,0.015799243396008876,9.254397663963283e-09,1.3689488269850796,0.13325498780516956,0.8647466154019018
0.12249117936781795,0.015792420081259438,8.29597799681977e-09,1.2692781198235272,0.1267615472463516,0.8645516973228086
0.1237539750314037,0.015785662111902934,7.402911148595287e-09,1.1142155185315334,0.12058455211404086,0.8645332905547395
0.12501677069498945,0.015779210242833408,6.554810406700866e-09,0.9700327538323034,0.11470858104553287,0.8645332710419761
0.1262795663585752,0.01577318376777985,6.356989749089955e-08,0.8443741675826081,0.10911896420790525,0.8645332612998391
0.126555232233451,0.015784101500470486,6.280475283365339e-08,1.0784324251186728,0.10793545499719961,0.8645332612998382
0.1268308981083268,0.01578618192026067,6.209309179944262e-08,1.0855668946801942,0.1067647833564634,0.8646536696101672
0.12710656398320258,0.01578898196409631,6.142226492020967e-08,1.093496574317976,0.10560681003657107,0.8648208109424191
0.12738222985807837,0.015792701260187277,6.080621449347108e-08,1.0981343791372915,0.10446139729870142,0.8650604304245371
0.12765789573295416,0.015797664158999303,6.025499797271744e-08,1.0978326658545132,0.10332840889824385,0.8653994530490747
0.12793356160782995,0.015804172997658218,5.977178085767552e-08,1.0938523386398888,0.10220771006854827,0.8658547325907772
0.12820922748270575,0.01581239452700429,5.935498861820207e-08,1.0878091102845093,0.10109916750481891,0.866432869772097
0.12848489335758154,0.01582239271912463,5.9001136599102146e-08,1.0807796324097623,0.10000264934820614,0.8671350527147268
0.12876055923245733,0.01583417782729511,5.8706299347566426e-08,1.0733893834662154,0.09891802517010151,0.8679601313215592
0.12903622510733312,0.01584773416690418,5.846668872188307e-08,1.065993815150995,0.0978451659566189,0.8689059780291438
0.1293118909822089,0.015863033607423974,5.827885466560938e-08,1.0587950482514896,0.09678394409325071,0.8699700662669232
0.1295875568570847,0.015880042129240973,5.8139738811438835e-08,1.0519071375061808,0.09573423334969236,0.871149727072226
0.1298632227319605,0.01589872313042124,5.8046671399771415e-08,1.0453922327432776,0.09469590886483177,0.8724422691122946
0.13013888860683628,0.015919039161958755,5.799734737140901e-08,1.0392811029960023,0.09366884713190213,0.8738450370933292
0.13041455448171207,0.015940952867146824,5.798979627959315e-08,1.0335851611414038,0.09265292598379521,0.8753554406161822
0.13069022035658787,0.01596442749886964,5.802235208593075e-08,1.0283037319360506,0.09164802457853354,0.8769709680759986
0.13096588623146366,0.015989427203650677,5.8093625279665914e-08,1.0234285690039864,0.09065402338489999,0.8786891926578595
0.13124155210633945,0.01601591717226381,5.820247818049174e-08,1.0189467291419552,0.089670804168223,0.880507774019172
0.13151721798121524,0.01604386371186452,5.834800359170281e-08,1.0148424366773072,0.08869824997631547,0.8824244575719845
0.13179288385609103,0.016073234271021645,5.8529506675527804e-08,1.0110983105127234,0.08773624512556613,0.8844370724245614
0.13206854973096682,0.01610399743614354,5.874648981120778e-08,1.0076961797220045,0.08678467518718162,0.8865435285877603
0.1323442156058426,0.016136122910498447,5.899864017043917e-08,1.004617628229102,0.08584342697357752,0.8887418138012732
0.1326198814807184,0.016169581482768616,5.928581975781592e-08,1.0018443580916896,0.08491238852491682,0.8910299901918665
0.1328955473555942,0.016204344989519327,5.960805769366073e-08,0.9993584296301222,0.0839914490957945,0.8934061908918361
0.13317121323047,0.016240386274388813,5.996554455249917e-08,0.9971424170079518,0.08308049914206628,0.8958686166953588
0.13344687910534578,0.016277679145814062,6.035862860744353e-08,0.9951795052830753,0.08217943030782034,0.8984155327993854
0.13372254498022157,0.016316198334471756,6.078781386681908e-08,0.9934535467220392,0.08128813541249008,0.9010452656562965
0.13399821085509736,0.016355919451198953,6.125375982379873e-08,0.9919490886998176,0.0804065084381069,0.9037561999532451
0.13427387672997315,0.016396818945884153,6.175728287268021e-08,0.9906513818116253,0.07953444451669103,0.906546775725259
0.13454954260484894,0.01643887406763555,6.229935937715362e-08,0.9895463742911424,0.07867183991777932,0.9094154856041189
0.13482520847972473,0.016482062826410022,6.288113040709681e-08,0.9886206970722784,0.07781859203608828,0.9123608722018299
0.13510087435460053,0.016526363956201922,6.350390819181998e-08,0.9878616425979266,0.07697459937931092,0.9153815256254507
0.13537654022947632,0.016571756879833716,6.41691843700804e-08,0.9872571396044606,0.07613976155604628,0.9184760811187946
0.1356522061043521,0.01661822167535196,6.487864015149306e-08,0.9867957254848841,0.07531397926385955,0.9216432168258053
0.1359278719792279,0.016665739044005406,6.563415854116666e-08,0.9864665173823756,0.0744971542774723,0.9248816516699934
0.1362035378541037,0.016714290279765197,6.643783882062831e-08,0.9862591828384523,0.07368918943708047,0.9281901433441991
0.13647920372897948,0.0167638572403356,6.729201352465828e-08,0.9861639105812208,0.0728899886367997,0.9315674864049343
0.13675486960385527,0.016814422319596904,6.819926820708089e-08,0.9861713818640053,0.07209945681323567,0.9350125104656611
0.13703053547873106,0.01686596842141837,6.91624643506773e-08,0.9862727426362536,0.07131749993417923,0.9385240784835459
0.13730620135360685,0.016918478934777274,7.018476584944568e-08,0.9864595767339861,0.07054402498742388,0.9421010851344231
0.13758186722848265,0.016971937710119983,7.126966957817497e-08,0.986723880207542,0.06977893996970501,0.9457424552709515
0.13785753310335844,0.017026329036901898,7.242104066814244e-08,0.9870580368533539,0.06902215387575963,0.9494471424591834
0.13813319897823423,0.017081637622244468,7.364315323297422e-08,0.9874547949793184,0.06827357668750486,0.9532141275890206
0.13840886485311002,0.01713784857064972,7.494073744073372e-08,0.9879072454062369,0.0675331193633344,0.9570424175542778
0.1386845307279858,0.01719494736471492,7.631903401401322e-08,0.9884088006886185,0.06680069382753168,0.9609310439983174
0.1389601966028616,0.017252919846792503,7.778385746801888e-08,0.9889531755244247,0.06607621295979818,0.9648790621214497
0.1392358624777374,0.0173117522015431,7.934166967873708e-08,0.9895343683141986,0.06535959058489643,0.9688855495465207
0.13951152835261318,0.01737143093933201,8.09996657240274e-08,0.9901466438238892,0.06465074146240565,0.9729496052393305
0.13978719422748898,0.01743194288042202,8.27658743792089e-08,0.9907845169019679,0.06394958127658985,0.9770703484807073
0.14006286010236477,0.017493275139918125,8.464927620082306e-08,0.9914427371996314,0.06325602662637685,0.9812469178872838
0.14033852597724056,0.01755541511342212,8.665994283147687e-08,0.9921162748422654,0.06256999501544694,0.9854784704781765
0.14061419185211635,0.01761835046335731,8.880920205003981e-08,0.9928003070006642,0.061891404842431164,0.9897641807849618
0.14088985772699214,0.017682069105925978,9.110983423566626e-08,0.9934902053116181,0.06122017539121707,0.994103240002486
0.14116552360186793,0.017746559198550078,9.357630737682305e-08,0.9941815216015137,0.06055622682136224,0.998494855178212
0.14144118947674372,0.01781180912576449,9.622505933410694e-08,0.994869934922625,0.05989948015861409,1.0029382484170368
0.14171685535161951,0.01787780748525457,9.907483921372974e-08,0.9955512482739999,0.059249857285535674,1.0074326559410203
0.1419925212264953,0.017944543083527928,1.0214712386282928e-07,0.996221498293776,0.05860728093223673,1.0119773274537214
0.1422681871013711,0.018012004924189768,1.0546662771769812e-07,0.9968768698840121,0.05797167466721011,1.016571525609186
0.1425438529762469,0.018080182197799805,1.0906193159260119e-07,0.9975136819514374,0.05734296288827261,1.0212145253668772
0.14281951885112268,0.018149064272381846,1.1296626434851917e-07,0.9981283795465691,0.0567210708136115,1.0259056133712292
0.14309518472599847,0.018218640684336092,1.1721848259814559e-07,0.9987175265175404,0.05610592447293617,1.0306440873571368
0.14337085060087426,0.018288901129732867,1.2186430951931947e-07,0.9992777986472959,0.055497450698736545,1.035429255580001
0.14364651647575005,0.01835983545596727,1.2695791637014768e-07,0.9998059772446162,0.05489557711764984,1.0402604362690224
0.14392218235062584,0.018431433653755873,1.3256396261408943e-07,1.0002989431614306,0.05430023214193802,1.0451369571025233
0.14419784822550163,0.018503685849457573,1.3876025764501767e-07,1.000753671210657,0.05371134496107992,1.0500581547041556
0.14447351410037743,0.018576582297701774,1.4564127684943208e-07,1.001167224960502,0.05312884553348323,1.0550233741589117
0.14474917997525322,0.018650113374308115,1.5332286996440797e-07,1.0015367518828284,0.052552664578324824,1.0600319685479305
