Time [s],Lmtc [m],STIM [ ],Fsee [N],Gamma [ ],Lcerel [ ]
0.0,0.021943586083181785,0.9999998415678286,1.1567864311503797,0.07805186123483138,1.2839543095350734
0.002231247290885262,0.02195546401481771,0.9999998153767959,2.1401461483424353,0.11303399233609505,1.2823538347804986
0.004462494581770524,0.021917214704255512,0.9999997606592765,3.021611998239002,0.1466887704427235,1.27803502271627
0.006693741872655786,0.021855057751272347,0.9999996843873072,3.7063488740704105,0.17906655917561423,1.2726375345882255
0.008924989163541048,0.02178026252983298,0.9999995910902438,4.206096265754069,0.21021581143734605,1.2667598133025397
0.01115623645442631,0.02169870942200486,0.9999994849652242,4.574524079043915,0.2401831418192465,1.2606565090396649
0.013387483745311573,0.021613545867246762,0.9999993697977796,4.8578016666459005,0.26901339634114424,1.25444847934713
0.015618731036196836,0.02152648405699301,0.9999992488480287,5.086354231979066,0.29674971954192325,1.2481980565983986
0.017849978327082097,0.021438482564922853,0.9999991248170811,5.278858100001467,0.32343361902009465,1.2419394150581842
0.02008122561796736,0.021350094925160396,0.999998999873627,5.446689600605648,0.349105027524184,1.2356920620121374
0.02231247290885262,0.021261649265683816,0.9999988757116917,5.596891962810405,0.3738023626881889,1.2294673616818288
0.024543720199737884,0.02117334352124484,0.9999987536195788,5.733937682297205,0.39756258450264104,1.2232719233778304
0.026774967490623146,0.021085297742293164,0.9999986345485498,5.860748270378602,0.4204212506076201,1.2171094683034522
0.02900621478150841,0.02099758391569747,0.9999985191755169,5.9792873977095695,0.4424125694903501,1.2109819095987038
0.03123746207239367,0.020910243572664303,0.9999984079574675,6.090912038727721,0.4635694516666617,1.2048900029319334
0.033468709363278934,0.020823298523566677,0.9999983011772297,6.196585051752796,0.4839235589225027,1.1988337516958956
0.03569995665416419,0.020736757591721465,0.9999981989811423,6.297006957324594,0.5035053516887803,1.1928126664135483
0.03793120394504945,0.020650620944239664,0.9999981014096001,6.392699565147062,0.5223441346200561,1.1868259345999186
0.04016245123593471,0.020564882938281875,0.999998008421545,6.484060251710829,0.5404681004449724,1.1808725340351698
0.04239369852681997,0.020479534026409348,0.999997919913933,6.571397946549493,0.5579043721537634,1.1749513093877828
0.04462494581770523,0.020394562051852368,0.9999978357370954,6.654957472786213,0.5746790435857506,1.1690610245952122
0.04685619310859049,0.02030995314008066,0.9999977557067743,6.734936321670084,0.5908172184773829,1.1632003989155408
0.04908744039947575,0.020225692318381526,0.9999976796134871,6.8114964172233465,0.606343048029105,1.1573681318082834
0.051318687690361006,0.02014176394923868,0.9999976072297507,6.884772503849549,0.6212797670471548,1.1515629200715536
0.053549934981246265,0.020058152034444804,0.9999975383155971,6.954878219193312,0.6356497287142807,1.145783469551591
0.055781182272131524,0.019974840428368307,0.9999974726227225,7.021910555317333,0.6494744380413374,1.1400285030133026
0.05801242956301678,0.019891812986696542,0.9999974098975463,7.085953181072439,0.6627745840497629,1.1342967652759526
0.06024367685390204,0.019809053668936025,0.9999973498833916,7.147078948559743,0.675570070733047,1.1285870263903144
0.0624749241447873,0.019726546607520462,0.999997292321961,7.205351807328641,0.6878800468434908,1.1228980834085707
0.06470617143567256,0.019644276152659172,0.9999972369542343,7.260828283291825,0.6997229345488012,1.1172287611418439
0.06693741872655783,0.019562226899478088,0.9999971835208922,7.313558633941324,0.7111164570013819,1.1115779121902312
0.06916866601744309,0.01948038370219375,0.9999971317623416,7.363587760127473,0.7220776648615602,1.1059444164520333
0.07139991330832836,0.019398731678774577,0.9999970814183957,7.4109559327836,0.732622961814422,1.1003271802628183
0.07363116059921362,0.019317256208620633,0.9999970322276512,7.4556993775171305,0.7427681291184353,1.0947251352743497
0.07586240789009889,0.01923594292512621,0.9999969839265829,7.497850748939323,0.7525283492225817,1.089137237153877
0.07809365518098416,0.019154777704501504,0.9999969362483682,7.53743951862823,0.761918228487331,1.0835624641625425
0.08032490247186942,0.01907374665187142,0.9999968889214411,7.574492294801252,0.7709518190434541,1.0779998156556367
0.08255614976275469,0.018992836085404176,0.9999968416677596,7.609033087490106,0.7796426398213792,1.0724483105355402
0.08478739705363995,0.018912032519023684,0.9999967942007647,7.6410835298285855,0.788003696782545,1.066906985679275
0.08701864434452522,0.018831321511982663,0.9999967462229902,7.670594379151276,0.7960475023830267,1.0613748943559462
0.08924989163541049,0.01875068613521804,0.9999966974232717,7.69735301930656,0.8037860942985513,1.0558511046443237
0.09148113892629575,0.01867011311386622,0.9999966474734848,7.721357529221323,0.8112310534389049,1.0503346978570125
0.09371238621718102,0.018589589592177436,0.999996596024719,7.742622702549185,0.8183935212786864,1.044824766974765
0.09594363350806628,0.018509102804531937,0.9999965427027719,7.761161430641372,0.8252842165303244,1.0393204150922983
0.09817488079895155,0.018428640055268466,0.999996487102812,7.776984786011982,0.8319134511842825,1.0338207538752322
0.10040612808983682,0.018348188698264892,0.9999964287830155,7.790102092751641,0.8382911459404387,1.0283249020264695
0.10263737538072208,0.01826773611627106,0.9999963672569308,7.800520985541632,0.8444268450537028,1.022831983759262
0.10486862267160735,0.0181872696999738,0.9999963019842443,7.808247458602084,0.8503297306160424,1.0173411272733592
0.10709986996249261,0.01810677682675708,0.9999962323595307,7.813285905650374,0.8560086362962445,1.0118514632299236
0.10933111725337788,0.018026244839105802,0.9999961576984339,7.815639151736144,0.8614720605579161,1.0063621232202817
0.11156236454426315,0.01794566152644425,0.9999960772212861,7.81533933272194,0.8667281793754211,1.0008722382230377
0.11379361183514841,0.01786501430088435,0.9999959900411264,7.812365240682676,0.8717848584667015,0.9953809743827067
0.11602485912603368,0.017784289273283283,0.9999958951437404,7.806408109721149,0.8766496650614864,0.9898877308315438
0.11825610641691894,0.017703478767124265,0.9999957913462344,7.797457305056213,0.8813298792222177,0.9843920002093497
0.12048735370780421,0.017622575127054157,0.9999956772533072,7.785509228013746,0.885832504733842,0.9788932707090133
0.12271860099868948,0.017541570585445438,0.9999955512032488,7.770559217062368,0.890164279578746,0.9733910260236156
0.12494984828957474,0.01746045725395432,0.999995411196969,7.752601547067477,0.8943316860121849,0.9678847448092152
0.12718109558046,0.01737922711455302,0.9999952548034632,7.7316294256707865,0.8983409602527175,0.9623739001246311
0.12941234287134526,0.017297872010014304,0.9999950790320222,7.707634986895933,0.9021981018013642,0.9568579588470248
0.1316435901622305,0.017216383633820942,0.9999948801566532,7.680609282047969,0.905908882402315,0.9513363810618306
0.13387483745311576,0.01713475351946701,0.9999946534704366,7.650542267944921,0.9094788546569658,0.945808619425353
0.13610608474400102,0.017052973029112503,0.9999943929348397,7.617422792493256,0.9129133603017948,0.9402741184981075
0.13833733203488627,0.0169710333415464,0.9999940906675142,7.58123857759396,0.9162175381588337,0.9347323140467155
0.14056857932577152,0.016888925439407593,0.9999937361745311,7.541976199342765,0.9193963317650348,0.9291826323119303
0.14279982661665677,0.016806640095605934,0.9999933151647395,7.499621065465033,0.9224544966830182,0.923624489240076
0.14503107390754202,0.01672416785887849,0.9999928076543791,7.454157389902739,0.9253966074894416,0.9180572896748911
0.14726232119842728,0.0166414990384083,0.999992184811262,7.405568164447088,0.9282270644262792,0.912480426506462
0.14949356848931253,0.01655862368742396,0.9999914034386786,7.353835127283722,0.93095009967999,0.9068932797735861
0.15172481578019778,0.016475531585688562,0.9999903957461601,7.298938728285795,0.9335697832131312,0.901295215715526
0.15395606307108303,0.016392212220775644,0.9999890489285653,7.240858090847766,0.9360900279865642,0.8956855857687275
0.15618731036196828,0.01630865476801703,0.9999871603478175,7.179570969985854,0.9385145942086787,0.8900637255036365
0.15841855765285354,0.01622484806899314,0.9999843258560701,7.1150537063043995,0.9408470917228231,0.884428953496314
0.1606498049437388,0.01614078060841834,0.9999796063955517,7.047281175142046,0.9430909780667657,0.8787805701291448
0.16288105223462404,0.016056440489253778,0.9999702053076573,6.976226729565318,0.9452495439554609,0.8731178563148961
0.1651122995255093,0.015971815405923125,0.9999423807316917,6.901862137509903,0.947325849127362,0.8674400721400701
0.16734354681639454,0.015886919291630216,0.5672513275541734,6.825684078223876,0.9493223158110502,0.8617464554404928
0.1695747941072798,0.015801588848614326,1.9849384359722444e-05,6.73744278934894,0.9170408271059327,0.8560382019578564
0.17180604139816505,0.015715652423614213,7.938839790410529e-06,6.623687150181598,0.8395609458047048,0.8503201592752395
0.1740372886890503,0.015629383133726128,4.161741173321338e-06,6.496332404730998,0.7686264705374535,0.8445972049562382
0.17626853597993555,0.01554276070028979,2.4372413895937496e-06,6.352327896161122,0.7036850555606147,0.8388722472290234
0.1784997832708208,0.015455764783880065,1.5163975531851708e-06,6.18796077411117,0.6442305100241493,0.8331492973373461
0.18073103056170606,0.01536837796831416,9.808570363646053e-07,5.998890362554491,0.5897993065149235,0.8274337830591482
0.1829622778525913,0.015280591877081725,6.525838863555085e-07,5.780339647799682,0.5399670465247192,0.8217329395354286
0.18519352514347656,0.015192418431387376,4.441621148971163e-07,5.527538113926425,0.4943451746843489,0.8160562933441218
0.1874247724343618,0.01510390875034114,3.0846145112907233e-07,5.23650625442414,0.4525779579699361,0.8104162590747935
0.18965601972524707,0.015015182046607874,2.1838462085995036e-07,4.905208658235002,0.4143397158886181,0.804828872372319
0.19188726701613232,0.01492646534292732,1.5762672706186464e-07,4.534945435385619,0.37933228297959126,0.7993146897113669
0.19411851430701757,0.014838141414560763,1.1604880956986106e-07,4.1316113793984375,0.34728268493218933,0.7938998926931123
0.19634976159790282,0.014750797889524013,8.719171033404271e-08,3.7062464303994256,0.3179410106619672,0.7886176460378995
0.19858100888878807,0.014665268649580579,6.686438425762976e-08,3.274363165932129,0.2910784639687895,0.7835098057885429
0.20081225617967333,0.014582666749356963,5.230674613967154e-08,2.854036641727049,0.26648557969449976,0.7786293348197655
0.20304350347055858,0.01450443099051862,4.167908863387341e-08,2.463327661680446,0.2439705905298585,0.7740448374363392
0.20527475076144383,0.014432425795994177,3.375475962834831e-08,2.1171665311414123,0.2233579317697127,0.7698509965286985
0.20750599805232908,0.014369066956533963,2.7744306925232477e-08,1.8225606836012282,0.20448687237808413,0.7661876155310751
0.20973724534321433,0.014317190657641777,2.3160562420036774e-08,1.5743461324217687,0.18721026170213365,0.7632460055253407
0.2119684926340996,0.014279084799393462,1.964923565209607e-08,1.361037866848496,0.17139338206708293,0.7611978089529279
0.21419973992498484,0.01425480205657453,1.687518955471593e-08,1.177105445171935,0.15691289830310964,0.760051559176338
0.2164309872158701,0.014241134206447306,1.4549093138837098e-08,1.0078838475574514,0.14365589601896697,0.7596242844506941
0.21866223450675534,0.014230581173917338,1.2474877609511315e-08,0.7892116489219689,0.1315190011358189,0.7596241294863086
0.2208934817976406,0.014221232439329566,1.0575930458419324e-08,0.6177740166866307,0.12040757381723201,0.7596241095249042
0.22312472908852585,0.014213028679248828,1.0073171642801012e-07,0.48460441932822074,0.11023497050766107,0.7596240976236339
0.22351847861044677,0.014231457474598584,9.953113392385514e-08,0.8063658364275007,0.10853118131541702,0.7596240976236336
0.2239122281323677,0.014252440590806721,9.889135367790864e-08,0.7993925480609688,0.10685372824470316,0.7610779028020203
0.2243059776542886,0.014275931856520051,9.83433038649915e-08,0.7930416499139047,0.10520220421639248,0.7627005222368708
0.22469972717620953,0.014301849096630001,9.787887719843184e-08,0.7873223398643857,0.10357620843648994,0.7644863001311551
0.22509347669813046,0.01433011244641106,9.749116546648727e-08,0.7822182951869423,0.10197534630610545,0.7664298294323056
0.22548722622005138,0.01436064517297416,9.717428628238752e-08,0.777700050098287,0.10039922932571264,0.7685259656816279
0.2258809757419723,0.014393373982618484,9.692323386989437e-08,0.7737318083938223,0.09884747500088437,0.7707698243627525
0.22627472526389322,0.014428229073765056,9.673375312085662e-08,0.7702752852436339,0.0973197067494828,0.77315677087917
0.22666847478581414,0.014465144061772328,9.660223419027169e-08,0.7672918979944486,0.09581555381028288,0.775682407400135
0.22706222430773507,0.014504055840100146,9.65256245585593e-08,0.764744009271402,0.09433465115300574,0.7783425586312385
0.227455973829656,0.014544904411965596,9.650135571859848e-08,0.7625956123929041,0.09287663938974204,0.7811332575321124
0.2278497233515769,0.01458763271103889,9.652728203470714e-08,0.7608126828480759,0.09144116468774309,0.7840507314900479
0.22824347287349783,0.014632186421379992,9.660162972198752e-08,0.759363327904449,0.09002787868355915,0.7870913891933182
0.22863722239541875,0.014678513802200102,9.67229542552698e-08,0.7582178141405245,0.08863643839850391,0.7902518083075947
0.22903097191733968,0.014726565520411624,9.689010482389818e-08,0.7573485220152084,0.08726650615542539,0.7935287239832952
0.2294247214392606,0.014776294492415087,9.710219470324615e-08,0.7567298581200144,0.08591774949676233,0.7969190181811148
0.22981847096118152,0.014827655735685695,9.735857662254839e-08,0.7563381444050441,0.08458984110386729,0.8004197097816538
0.23021222048310244,0.014880606230203548,9.76588223788968e-08,0.7561514965609708,0.08328245871757578,0.8040279454345678
0.23060597000502336,0.014935104789471982,9.800270608606524e-08,0.7561496992222347,0.08199528506000364,0.807740991098367
0.23099971952694429,0.014991111940700835,9.839019056028107e-08,0.7563140827535918,0.08072800775755218,0.8115562242211826
0.2313934690488652,0.015048589813644793,9.882141643816132e-08,0.7566274045003467,0.07948031926510381,0.8154711265140088
0.23178721857078613,0.0151075020375497,9.929669369889315e-08,0.7570737361577924,0.0782519167913891,0.819483277270173
0.23218096809270705,0.015167813645652891,9.98164953266613e-08,0.7576383581173426,0.07704250222550718,0.8235903471875841
0.23257471761462797,0.015229490986695042,1.0038145290298828e-07,0.7583076611296643,0.07585178206458193,0.8277900926533109
0.2329684671365489,0.015292501642922847,1.0099235396420278e-07,0.7590690552936314,0.07467946734253672,0.8320803504530652
0.23336221665846982,0.015356814354090292,1.0165014099843643e-07,0.7599108861723313,0.07352527355996921,0.8364590328711364
0.23375596618039074,0.015422398946996582,1.0235591199080619e-07,0.7608223577122997,0.07238892061511092,0.8409241231491139
0.23414971570231166,0.015489226270130895,1.0311092245594261e-07,0.7617934615720586,0.07127013273585364,0.8454736712743812
0.23454346522423258,0.015557268133025118,1.0391658892478473e-07,0.7628149124327074,0.07016863841282664,0.8501057900718059
0.2349372147461535,0.015626497249946376,1.0477449387842731e-07,0.7638780888537783,0.0690841703335081,0.854818651574318
0.23533096426807443,0.015696887187589735,1.0568639214654529e-07,0.7649749792437756,0.06801646531735571,0.8596104836501463
0.23572471378999535,0.01576841231645851,1.0665421881221521e-07,0.7660981325304599,0.06696526425193944,0.8644795668663733
0.23611846331191627,0.015841047765645207,1.0768009868946684e-07,0.7672406131375712,0.06593031203006197,0.8694242315702345
0.2365122128338372,0.015914769380749125,1.0876635746526122e-07,0.768395959899356,0.06491135748785115,0.8744428551711524
0.23690596235575812,0.015989553684688664,1.0991553462446684e-07,0.7695581485701196,0.06390815334380959,0.8795338596079566
0.23729971187767904,0.01606537784118602,1.111303983054741e-07,0.7707215576122193,0.06292045613880662,0.8846957089870562
0.23769346139959996,0.016142219620720728,1.1241396226611092e-07,0.7718809369713192,0.06194802617699796,0.8899269073785463
0.23808721092152088,0.016220057368764685,1.1376950517533647e-07,0.773031379572076,0.06099062746765885,0.8952259967583017
0.2384809604434418,0.016298869976127395,1.1520059248677022e-07,0.774168295290394,0.0600480276679168,0.9005915550851389
0.23887470996536272,0.016378636851253705,1.1671110119658628e-07,0.7752873871798128,0.059119998026369656,0.906022194503008
0.23926845948728365,0.016459337894329535,1.1830524784200914e-07,0.7763846297494343,0.05820631332757554,0.9115165596590259
0.23966220900920457,0.016540953473062933,1.1998762015919203e-07,0.7774562491091029,0.05730675183740155,0.9170733261289139
0.2400559585311255,0.016623464400018276,1.21763212892584e-07,0.7784987048142885,0.056421095249217464,0.9226911989420755
0.2404497080530464,0.016706851911391676,1.2363746833436106e-07,0.7795086732584716,0.05554912863092173,0.9283689111992054
0.24084345757496733,0.016791097647124435,1.2561632227501657e-07,0.7804830324748052,0.054690640372787015,0.9341052227758687
0.24123720709688826,0.016876183632259838,1.2770625616835793e-07,0.7814188482215259,0.053845422136112514,0.9398989191060376
0.24163095661880918,0.016962092259455788,1.29914356460394e-07,0.7823133612370994,0.05301326880267102,0.9457488100400213
0.2420247061407301,0.017048806272573214,1.3224838220747883e-07,0.7831639755616636,0.05219397842493797,0.9516537287716984
0.24241845566265102,0.017136308751266018,1.3471684232156956e-07,0.7839682478307175,0.05138735217709104,0.95761253083033
0.24281220518457194,0.017224583096504358,1.373290840383672e-07,0.7847238774556905,0.05059319430676854,0.9636240931326151
0.24320595470649287,0.017313613016968377,1.4009539451859993e-07,0.7854286976137741,0.04981131208757442,0.9696873130909789
0.2435997042284138,0.017403382516254194,1.4302711787800712e-07,0.7860806669764977,0.0490415157723195,0.9758011077743934
0.2439934537503347,0.01749387588083865,1.4613679041597093e-07,0.7866778621128864,0.04828361854698685,0.9819644131183146
0.24438720327225563,0.017585077668753016,1.4943829739978095e-07,0.7872184705088605,0.047537436485411165,0.988176183180562
0.24478095279417655,0.017676972698919838,1.5294705549176778e-07,0.7877007841427024,0.046802788504660846,0.9944353894402352
0.24517470231609748,0.01776954604054297,1.5668022558059296e-07,0.7881231825627488,0.04607949632111278,1.0007410201368556
0.2455684518380184,0.01786278299855002,1.606569611149438e-07,0.7884840638079699,0.04536738440720922,1.0070920795230165
0.24596220135993932,0.017956669107449755,1.648987022987801e-07,0.7887819619268794,0.04466627994888699,1.0134875870364906
0.24635595088186024,0.01805119012710224,1.694295251150879e-07,0.7890155360392456,0.043976012803669313,1.019926577052838
0.24674970040378116,0.01814633203353813,1.7427655503246822e-07,0.7891835244275412,0.043296415459410854,1.0264080984228816
0.24714344992570209,0.018242081011493206,1.7947046116597987e-07,0.7892847406401501,0.04262732299368662,1.0329312139796847
0.247537199447623,0.018338423447367413,1.8504604987666546e-07,0.789318069894876,0.04196857303381659,1.0394950000732714
0.24793094896954393,0.018435345922583515,1.9104298193930566e-07,0.7892824657574112,0.04132000571751711,1.046098546131489
0.24832469849146485,0.0185328352073221,1.9750664434144915e-07,0.789176947071624,0.040681463654171864,1.052740954245518
0.24871844801338577,0.018630878254611308,2.0448921703482101e-07,0.7890005951204523,0.040052791886714734,1.0594213387786369
0.2491121975353067,0.018729462535490758,2.1205098744228318e-07,0.7887591799009203,0.039433837854118574,1.066138825996936
0.24950594705722762,0.018828590937777525,2.2026198252731875e-07,0.7887550740384089,0.038824451354483897,1.0728925537207783
