Time [s],Lmtc [m],STIM [ ],Fsee [N],Gamma [ ],Lcerel [ ]
0.0,0.021911168993311247,0.9999997802436755,2.440824176057862,0.12634489006192326,1.2787177152866653
0.00192770998353538,0.021865425091361336,0.9999997222902448,3.139338815186047,0.15505994026606557,1.2742979134791392
0.00385541996707076,0.021805394157789662,0.9999996479242579,3.692363998123809,0.18283119014171445,1.2692765210137722
0.00578312995060614,0.021737067508124017,0.9999995601697476,4.11491318025368,0.20968965972073514,1.2639559365292696
0.00771083993414152,0.021663915838442297,0.9999994619278755,4.440726085707754,0.23566534957645385,1.2584820016047176
0.0096385499176769,0.02158796877086971,0.9999993558697026,4.699509834000117,0.2607872743269039,1.2529311126163496
0.011566259901212279,0.021510425509030606,0.9999992443575346,4.912408532783383,0.28508349503337244,1.2473459463956842
0.013493969884747659,0.02143200827270272,0.9999991294140645,5.093470885159681,0.30858115053149454,1.2417515194934192
0.015421679868283038,0.021353161668954495,0.9999990127266881,5.251877200020746,0.3313064877315518,1.2361629916037744
0.017349389851818418,0.021274164962828086,0.9999988956722758,5.393659641753326,0.35328489092301135,1.2305897262786696
0.0192770998353538,0.021195196279769263,0.9999987793516619,5.522842936373252,0.37454091011670443,1.2250375315475752
0.02120480981888918,0.021116370201850955,0.9999986646270523,5.642165216401692,0.3950982884565961,1.2195099589743557
0.02313251980242456,0.02103776038069015,0.9999985521584259,5.753528731561868,0.4149799887318219,1.2140090888641426
0.025060229785959943,0.02095941350949324,0.9999984424368943,5.858283215563065,0.4342082190185299,1.2085360218290608
0.026987939769495324,0.020881358180358488,0.9999983358141572,5.957406345392033,0.4528044574800315,1.203091195767955
0.028915649753030705,0.020803610633869703,0.9999982325278706,6.051620527506464,0.4707894763527959,1.1976745954325532
0.030843359736566087,0.020726178572457715,0.9999981327231166,6.141469793376756,0.48818336514490973,1.1922858939200327
0.032771069720101464,0.02064906373867771,0.9999980364703457,6.227371318577356,0.5050055530727665,1.1869245498980847
0.03469877970363684,0.020572263688317282,0.9999979437802273,6.30965053183566,0.5212748307608992,1.1815898753895122
0.03662648968717222,0.02049577302802864,0.9999978546158469,6.388565435139893,0.5370093712290801,1.176281083589233
0.0385541996707076,0.02041958429031456,0.9999977689026612,6.464323714508665,0.5522267501900184,1.1709973229041268
0.040481909654242976,0.020343688558833624,0.9999976865365773,6.53709495741016,0.566943965680252,1.1657377013432264
0.042409619637778354,0.02026807591922196,0.9999976073904702,6.607019498810165,0.5811774570460766,1.160501304060136
0.04433732962131373,0.020192735786334185,0.9999975313194112,6.674214911235376,0.594943123305668,1.1552872059803805
0.04626503960484911,0.020117657142896508,0.99999745816483,6.7387808261261135,0.6082563409078533,1.1500944808661393
0.04819274958838449,0.020042828713969518,0.9999973877577999,6.800802558117159,0.6211319809073292,1.1449222077769854
0.050120459571919865,0.01996823909445278,0.9999973199215987,6.860353860167697,0.6335844255754788,1.1397694756139656
0.05204816955545524,0.019893876841946566,0.999997254473672,6.917499040382285,0.6456275844653097,1.1346353862449245
0.05397587953899062,0.019819730543867563,0.9999971912271014,6.972294604946602,0.6572749099484423,1.1295190565750515
0.055903589522526,0.019745788865309054,0.9999971299916596,7.024790545604794,0.66853941224148,1.1244196198308714
0.057831299506061376,0.019672040582422324,0.9999970705745188,7.075031357880981,0.6794336739385284,1.119336226256748
0.059759009489596754,0.019598474604863306,0.9999970127806652,7.123056853423159,0.6899698640660917,1.1142680433725154
0.06168671947313213,0.01952507998995234,0.9999969564130586,7.168902813512061,0.7001597516760248,1.109214255903785
0.06361442945666751,0.019451845950537696,0.9999969012725703,7.212601518969454,0.7100147189917276,1.1041740654689447
0.06554213944020289,0.019378761858067865,0.9999968471577202,7.254182183084334,0.7195457741222459,1.099146690086377
0.06746984942373827,0.019305817242015178,0.999996793864228,7.293671307831691,0.7287635633584831,1.0941313635499679
0.06939755940727364,0.0192330017865216,0.9999967411843891,7.331092978948093,0.7376783830652487,1.0891273347093295
0.07132526939080902,0.019160305324931955,0.9999966889062739,7.366469111901326,0.7463001911824195,1.0841338666822973
0.0732529793743444,0.019087717832723644,0.9999966368127511,7.39981965813035,0.754638618348061,1.0791502360204845
0.07518068935787978,0.019015229419222214,0.9999965846803218,7.431162778908711,0.7627029786559211,1.0741757318434888
0.07710839934141515,0.018942830318400335,0.9999965322777512,7.4605149926354475,0.7705022800593138,1.069209654953339
0.07903610932495053,0.018870510829110454,0.9999964793644738,7.487888310518711,0.7780452344330051,1.0642513169376773
0.08096381930848591,0.018798258731374626,0.9999964256887429,7.513135810335251,0.7853402673043336,1.0593000392677587
0.08289152929202129,0.01872606307626268,0.9999963709854849,7.536179070836566,0.7923955272644357,1.0543551523954864
0.08481923927555667,0.018653914524020578,0.9999963149738094,7.557030002140325,0.7992188950700669,1.0494159948522213
0.08674694925909204,0.018581803800136493,0.9999962573541112,7.5756992067240665,0.8058179924461916,1.044481912350965
0.08867465924262742,0.018509721683980625,0.9999961978046893,7.592196039782586,0.8122001905991535,1.0395522568925832
0.0906023692261628,0.018437658997262435,0.9999961359777803,7.606528661139714,0.8183726184499263,1.0346263858760352
0.09253007920969818,0.01836560659232161,0.9999960714948877,7.618704079779698,0.824342170596628,1.029703661211952
0.09445778919323355,0.018293555340258196,0.99999600394125,7.628728191875048,0.830115515015169,1.024783448438481
0.09638549917676893,0.01822149611889697,0.9999959328592518,7.636605813034274,0.8356991005066169,1.0198651158378647
0.09831320916030431,0.01814941980057396,0.9999958577405299,7.642340705366197,0.8410991638995671,1.0149480335519376
0.10024091914383969,0.018077317239725443,0.9999957780164533,7.64593559985304,0.8463217370155302,1.010031572694398
0.10216862912737507,0.018005179260254106,0.9999956930465662,7.647392214436817,0.8513726534050637,1.0051151044574786
0.10409633911091044,0.017932997260182073,0.9999956021054225,7.646748674984948,0.8562575548621315,1.000197999210389
0.10602404909444582,0.017860761478055348,0.999995504374101,7.643939859753969,0.8609818977239101,0.9952796654535271
0.1079517590779812,0.01778846207812319,0.9999953989223377,7.63874098418124,0.8655509589632617,0.9903596873690937
0.10987946906151658,0.01771609359019543,0.9999952846754645,7.631149900471903,0.8699698420803694,0.985437697433094
0.11180717904505195,0.017643650482068896,0.9999951603809997,7.621164173685775,0.8742434827996484,0.9805133254976918
0.11373488902858733,0.01757112714822253,0.9999950245676985,7.608780675734354,0.8783766545783029,0.9755861984934204
0.11566259901212271,0.017498517904979707,0.9999948754929519,7.593995586031701,0.8823739739324978,0.9706559401196172
0.11759030899565809,0.017425816985390134,0.9999947110744554,7.5768043905416125,0.8862399055867282,0.9657221705226826
0.11951801897919347,0.01735301853382221,0.9999945288003613,7.557201879284981,0.8899787674517067,0.9607845059616509
0.12144572896272884,0.017280116600254112,0.9999943256095531,7.535182142355096,0.8935947354356768,0.9558425584604334
0.12337343894626422,0.017207105134249785,0.9999940977297544,7.51073856447428,0.8970918480936604,0.9508959354460247
0.1253011489297996,0.01713397797860333,0.9999938404550501,7.483863818111923,0.9004740111185723,0.945944239371833
0.127228858913335,0.01706072886263283,0.9999935478345859,7.454549855172423,0.903745001677408,0.9409870673252038
0.12915656889687038,0.0169873513951021,0.9999932122281051,7.422787897249751,0.9069084725946815,0.9360240106180864
0.13108427888040577,0.01691383905674597,0.9999928236567448,7.388568424435202,0.909967956383754,0.9310546543596971
0.13301198886394117,0.01684018519237205,0.9999923688298825,7.351881162654006,0.9129268691243216,0.9260785770099005
0.13493969884747656,0.016766383002508392,0.9999918296423089,7.312715069496149,0.9157885141804808,0.9210953499119067
0.13686740883101195,0.016692425534563574,0.9999911807717969,7.271058318495452,0.9185560857471864,0.9161045368027633
0.13879511881454734,0.016618305673461457,0.9999903856791443,7.226898281798752,0.9212326722011922,0.9111056932999576
0.14072282879808273,0.016544016131709294,0.999989389616827,7.180221511151769,0.9238212592103788,0.906098366362312
0.14265053878161812,0.016469549438852944,0.999988106664595,7.131013717108114,0.9263247325111028,0.9010820937231746
0.14457824876515352,0.016394897930268024,0.9999863938498501,7.079259746335823,0.9287458801681512,0.896056403293753
0.1465059587486889,0.016320053735229788,0.9999839943536557,7.024943556836861,0.9310873939098239,0.891020812534249
0.1484336687322243,0.01624500876419712,0.9999803960091429,6.968048190768124,0.9333518685524571,0.8859748277902928
0.1503613787157597,0.016169754695236325,0.9999744089333397,6.908555744239659,0.9355417967930832,0.8809179435920946
0.15228908869929508,0.01609428295949641,0.9999624903481872,6.846447332688317,0.9376595502910909,0.8758496419139808
0.15421679868283047,0.016018584725689428,0.9999272425305344,6.781703051501501,0.9397073063129204,0.8707693913938783
0.15614450866636587,0.015942676257022743,0.5016608980380096,6.7157422141642575,0.94168659874532,0.8656766465281389
0.15807221864990126,0.01586637775982657,2.554428214238592e-05,6.637540758371519,0.9093753684801871,0.8605724879772955
0.15999992863343665,0.01578959816386832,1.052147321692101e-05,6.539421932720542,0.8426014932946007,0.855460314198943
0.16192763861697204,0.015712546185539432,5.702693335393329e-06,6.431073937832258,0.7807297978731547,0.8503430188314721
0.16385534860050743,0.015635203511460395,3.4580455149708157e-06,6.310560039928055,0.7234010587713516,0.8452220931799906
0.16578305858404283,0.015557550144961527,2.229082263459885e-06,6.17556766323495,0.6702818704711938,0.8400995350293413
0.16771076856757822,0.015479565112839436,1.493615191940324e-06,6.023407802830466,0.6210631953700791,0.834977967733648
0.1696384785511136,0.01540122812397406,1.0284830572333487e-06,5.851067968485887,0.5754586505095282,0.8298607827890371
0.171566188534649,0.015322522792953097,7.232215655230806e-07,5.6553511092613515,0.5332028659761517,0.8247523094968064
0.1734938985181844,0.015243442241626272,5.175417691086636e-07,5.433137664689861,0.49404995016482584,0.819658015895185
0.17542160850171978,0.015163998018631681,3.762061621846862e-07,5.181802414129393,0.45777206314838303,0.8145847461079736
0.17734931848525518,0.015084233183688983,2.7757016699305024e-07,4.899792511394879,0.4241580929615551,0.8095410008644174
0.17927702846879057,0.015004239898408468,2.078398624073606e-07,4.587319585867806,0.393012428245517,0.8045372704497761
0.18120473845232596,0.014924180812975434,1.5797730312067244e-07,4.2470392714416905,0.3641538205969012,0.7995864330213779
0.18313244843586135,0.014844312074090146,1.2193411556773265e-07,3.884511722084419,0.3374143302285975,0.7947042369051377
0.18506015841939674,0.014765004615469285,9.559566695932466e-08,3.5082115254841066,0.3126383489221928,0.7899098981067627
0.18698786840293213,0.014686761098855618,7.612568633872338e-08,3.1289489014130574,0.28968169464861204,0.7852268881088794
0.18891557838646753,0.014610230861288435,6.154654539237832e-08,2.7587860989083284,0.26841077262368884,0.7806841539670657
0.19084328837000292,0.014536236253011644,5.046477158559579e-08,2.40973648627995,0.24870179793757494,0.776318545652842
0.1927709983535383,0.01450659114958655,1.55645993724203e-07,3.5830121782530178,0.2304400752472173,0.7721803845641088
0.1934135683480501,0.014501877853755427,1.5148795043199328e-07,3.3902447513443326,0.2246558499997976,0.7721803845640951
0.19405613834256188,0.01449718545789842,1.4743428630735197e-07,3.203625522711908,0.21901681960259425,0.7721803863530889
0.19469870833707367,0.014492523722957413,1.4348237702990808e-07,3.023456684973971,0.21351933939385428,0.7721803882877495
0.19534127833158546,0.014487901812172237,1.3962966840230058e-07,2.8499742045707976,0.2081598561996379,0.7721803903871364
0.19598384832609725,0.01448332833035489,1.3587367034483093e-07,2.6833543516338296,0.20293490603730316,0.7721803926736492
0.19662641832060904,0.01447881128076349,1.3221195528682816e-07,2.523716200406799,0.1978411118766381,0.772180395173831
0.19726898831512082,0.014474358033772434,1.2864215659870116e-07,2.371124873484787,0.1928751814571924,0.772180397919428
0.1979115583096326,0.014469975306828095,1.251619670637847e-07,2.2255953732400964,0.1880339051603984,0.7721804009488157
0.1985541283041444,0.014465669154943035,1.2176913738917178e-07,2.0870968456422885,0.18331415393510508,0.7721804043089456
0.1991966982986562,0.014461444970806397,1.1846147475486284e-07,1.955557129299078,0.17871287727518625,0.7721804080580676
0.19983926829316798,0.014457307493475772,1.1523684140077478e-07,1.8308674547159627,0.1742271012479129,0.772180412269626
0.20048183828767976,0.01445326082456868,1.1209315325152308e-07,1.7128871743082315,0.16985392657181883,0.7721804170379983
0.20112440828219155,0.01444930845089794,1.0902837857956949e-07,1.6014484216185922,0.16559052674281421,0.7721804224872251
0.20176697827670334,0.014445453272621167,1.0604053670868262e-07,1.496360618017874,0.1614341462073376,0.7721804287848268
0.20240954827121513,0.014441697636280542,1.0312769676256775e-07,1.3974147676220916,0.15738209858136534,0.7721804361647345
0.20305211826572692,0.01443804337284487,1.0028797647041101e-07,1.3043875104108027,0.1534317649141271,0.7721804449676323
0.2036946882602387,0.014434491842888553,9.751954105941098e-08,1.2170449556761103,0.14958059199540502,0.7721804557174299
0.2043372582547505,0.014431043997806314,9.482060232146678e-08,1.1351464602117705,0.1458260907053238,0.7721804692811635
0.20497982824926228,0.014427700495372637,9.21894181644349e-08,1.0584491026198466,0.14216583440556266,0.772180487251929
0.20562239824377407,0.014424462099642255,8.962429422796119e-08,0.9867174426090499,0.13859745737095244,0.7721805130722995
0.20626496823828586,0.014421333645942126,8.712360620517037e-08,0.9198052426025,0.13511865326044162,0.7721805566944434
0.20690753823279764,0.0144189272903273,8.468874204647403e-08,0.8699093039985052,0.1317271736264446,0.7721806787096849
0.20755010822730943,0.014417630868082558,8.232481557677911e-08,0.8416733507711694,0.12842082646168268,0.7721872880550286
0.20819267822182122,0.014416835997463151,8.003449236974457e-08,0.8188834245996905,0.12519747478251902,0.7722109253368589
0.208835248216333,0.014416662468414306,7.781895840090727e-08,0.802378968520017,0.12205503524770041,0.7722561180247774
0.2094778182108448,0.01441734699777613,7.568502782380911e-08,0.7940757099509771,0.11899147681179503,0.7723316613779525
0.21012038820535658,0.014419347342428624,7.365649148467845e-08,0.7970814195920566,0.11600481941261026,0.7724574657854123
0.21076295819986837,0.014423297533772937,7.18068796908871e-08,0.8077303120894075,0.11309313269184328,0.7726896212462605
0.21140552819438016,0.014430553322777779,7.023852547148117e-08,0.8057575305137329,0.11025453474866823,0.7731907965017
0.21204809818889195,0.014443859221417435,6.89866940959299e-08,0.7939152261934065,0.10748719092408532,0.7741385248310199
0.21269066818340374,0.014464081291107562,6.801565327863962e-08,0.7801551718183443,0.10478931261337852,0.7755645157485213
0.21333323817791552,0.014491097966464812,6.728061825026745e-08,0.7670965448522576,0.10215915610828398,0.7774513655663404
0.2139758081724273,0.014524587464697605,6.674460709450201e-08,0.7554686307893805,0.09959502146977735,0.7797744876961111
0.2146183781669391,0.014564199210615634,6.637883563300274e-08,0.7454071285049181,0.09709525142957903,0.7825093987721078
0.2152609481614509,0.014609594168163688,6.616113555744957e-08,0.7368454933034142,0.09465823031924407,0.7856331329641307
0.21590351815596268,0.014660455065863534,6.60744678259583e-08,0.7296489270440425,0.09228238302609387,0.7891244743829854
0.21654608815047446,0.014716488169614201,6.610576632982315e-08,0.7236652612724384,0.08996617397531881,0.7929638959542901
0.21718865814498625,0.014777422387640345,6.624507314025833e-08,0.7187452663588123,0.08770810613760292,0.7971334218929832
0.21783122813949804,0.01484300753878326,6.648489660807766e-08,0.7147505821706168,0.0855067200616374,0.8016164769138612
0.21847379813400983,0.014913012432027145,6.681973440250894e-08,0.7115563210413932,0.08336059293090366,0.8063977421608332
0.21911636812852162,0.014987222998987443,6.72457183193141e-08,0.709051317127091,0.08126833764412107,0.8114630239296983
0.2197589381230334,0.015065440567210212,6.77603497342925e-08,0.7071373555657812,0.07922860191876821,0.8167991363663674
0.2204015081175452,0.015147480299935056,6.83623034456155e-08,0.705728003173523,0.07724006741710061,0.8223937975481962
0.22104407811205698,0.015233169802108681,6.905128399471163e-08,0.7047473353789883,0.07530144889410255,0.8282355377527572
0.22168664810656877,0.015322347881924896,6.982792308450042e-08,0.7041286973076665,0.07341149336682289,0.8343136185768066
0.22232921810108056,0.015414863453429614,7.069370997376283e-08,0.7038135596223968,0.07156897930455973,0.8406179616102495
0.22297178809559234,0.015510574565038336,7.165094911007266e-08,0.7037504911378271,0.0697727158393714,0.8471390854805628
0.22361435809010413,0.015609347539470795,7.270274104576714e-08,0.7038942511043538,0.06802154199640355,0.8538680502132681
0.22425692808461592,0.01571105621181656,7.38529840541939e-08,0.7042049949375542,0.06631432594353656,0.8607964079827936
0.2248994980791277,0.015815581253825574,7.510639496355797e-08,0.7046475832437685,0.06464996425986791,0.8679161594469336
0.2255420680736395,0.015922809573889033,7.646854865297834e-08,0.7051909827555712,0.06302738122255754,0.8752197149642675
0.22618463806815128,0.016032633783457304,7.794593648624413e-08,0.7058077479131887,0.06144552811157593,0.8826998600870696
0.22682720806266307,0.016144951721801394,7.954604475560866e-08,0.7064735725976634,0.05990338253190571,0.8903497248032214
0.22746977805717486,0.016259666032054556,8.127745502622168e-08,0.7071669025575889,0.058399947752759154,0.8981627560706492
0.22811234805168665,0.016376683782375983,8.314996916585507e-08,0.7078686001724094,0.05693425206338504,0.9061326932481669
0.22875491804619844,0.016495916126869563,8.517476287310539e-08,0.7085616542592307,0.05550534814504943,0.9142535460785978
0.22939748804071022,0.016617278001577848,8.736457274896452e-08,0.7092309286086247,0.05411231245878442,0.9225195749247944
0.230040058035222,0.01674068785146846,8.973392347700283e-08,0.7098629438098504,0.052754244648510355,0.9309252729977259
0.2306826280297338,0.016866067384847017,9.229940359741887e-08,0.7104456876941808,0.051430266959146625,0.9394653503490147
0.2313251980242456,0.016993341352078948,9.508000082837927e-08,0.7109684503925178,0.05013952366933574,0.9481347194289819
0.23196776801875738,0.017122437345890616,9.8097511107464e-08,0.7114216805786987,0.048881180538415545,0.9569284820360134
0.23261033801326916,0.017253285620856772,1.0137703977902743e-07,0.7117968599635897,0.047654424267283835,0.9658419175044858
0.23325290800778095,0.01738581892997328,1.0494761903838145e-07,0.7120863935272994,0.046458461972808854,0.9748704719970398
0.23389547800229274,0.017519972376467578,1.0884297343101563e-07,0.7122835133373304,0.045292520675448346,0.9840097487831011
0.23453804799680453,0.01765568327919224,1.13102475714041e-07,0.7123821936026019,0.044155846799749994,0.9932554993995165
0.23518061799131632,0.017792891047959513,1.17772348824749e-07,0.7123770372619594,0.043047705687413736,1.0026036155914886
0.2358231879858281,0.017931537056863456,1.2290718863086368e-07,0.712263100086545,0.04196738112260765,1.0120501213449367
0.2364657579803399,0.01807156455161165,1.2857192254045792e-07,0.7120361277144797,0.04091417486923743,1.0215911657127719
