Time [s],Lmtc [m],STIM [ ],Fsee [N],Gamma [ ],Lcerel [ ]
0.0,0.021524949311408605,0.9999999393246365,0.5234889114860894,0.049120062212797966,1.2576218995377817
0.0026517051201495664,0.02158394689154067,0.9999999401625971,1.8760862383473582,0.09184400579397523,1.2576218985238539
0.005303410240299133,0.021612819989746047,0.999999929833499,3.2231122941736525,0.13264832170896804,1.2569415966965225
0.007955115360448699,0.02158470711205586,0.9999999039803584,4.278561960052654,0.1716192601655941,1.2533270060165744
0.010606820480598265,0.021528352616130057,0.9999998679906771,4.988922606284863,0.2088391958714664,1.2484603803226557
0.013258525600747832,0.021457938009359866,0.9999998246532102,5.461487352735906,0.244386802601754,1.2430198075076873
0.015910230720897398,0.021380330600965454,0.9999997761993433,5.793234588871192,0.2783372193688582,1.2372973303934596
0.018561935841046963,0.021298920140444603,0.9999997245051621,6.0429353505300325,0.31076220921764636,1.2314314931690882
0.02121364096119653,0.02121545957006655,0.9999996711111226,6.243209676324928,0.3417303108949425,1.2254939145885146
0.0238653460813461,0.021130904549033085,0.9999996172417338,6.412169005318701,0.37130698370524656,1.2195241863734423
0.026517051201495667,0.021045801787269888,0.9999995638399576,6.560164282421501,0.39955474585883166,1.2135453119453703
0.029168756321645235,0.02096047649456117,0.9999995116091094,6.693326546955842,0.4265333066052739,1.2075711261096045
0.0318204614417948,0.02087512785377037,0.999999461055287,6.815436456368611,0.45229969243198137,1.2016101044087837
0.03447216656194437,0.020789880006088675,0.999999412526278,6.928901073315888,0.47690836759440375,1.1956674651793253
0.03712387168209394,0.020704810650108516,0.999999366245186,7.035308454400429,0.5004113492324576,1.1897463579165422
0.03977557680224351,0.020619967853592394,0.9999993223384508,7.135741551771651,0.5228583173161672,1.1838485846330682
0.042427281922393076,0.020535380358460115,0.9999992808586134,7.230965499797799,0.5442967196526041,1.1779750522909158
0.045078987042542644,0.020451063969299296,0.9999992418024555,7.321530584875773,0.5647718721757862,1.1721260702611749
0.04773069216269221,0.020367025594512096,0.9999992051252904,7.407839930115406,0.5843270547312696,1.166301536047313
0.05038239728284178,0.02028326605211888,0.9999991707521307,7.490203956509692,0.6030036025576906,1.160501056614581
0.05303410240299135,0.020199782032639634,0.999999138586322,7.5688686530178515,0.6208409936584567,1.1547240451660412
0.055685807523140916,0.020116567213348827,0.9999991085161457,7.644019093840008,0.6378769322481285,1.1489697896809736
0.058337512643290484,0.02003361320406233,0.9999990804198255,7.715810794462295,0.6541474284497762,1.1432374794284659
0.06098921776344005,0.01995091010994112,0.9999990541693268,7.784365551136152,0.6696868744116801,1.137526246326041
0.06364092288358962,0.019868447056918773,0.999999029633161,7.849790884008471,0.6845281170042067,1.1318351776530509
0.06629262800373918,0.01978621257216033,0.9999990066784196,7.912179610028069,0.6987025272504706,1.12616334157699
0.06894433312388874,0.019704194481988402,0.9999989851722324,7.971590645475805,0.7122400666374995,1.1205098005774692
0.0715960382440383,0.019622380582082936,0.9999989649827582,8.028109749386818,0.7251693504480452,1.114873589381119
0.07424774336418787,0.019540758306284736,0.9999989459798055,8.081775469790282,0.7375177082468746,1.1092537736295118
0.07689944848433743,0.019459314858671677,0.9999989280351568,8.132633195741134,0.749311241649385,1.1036493988026197
0.07955115360448699,0.019378037602629,0.9999989110226899,8.180738915037304,0.7605748794946351,1.0980595125615433
0.08220285872463655,0.019296914126577407,0.9999988948182984,8.226140664151751,0.7713324305394016,1.092483189313478
0.08485456384478611,0.019215932080006916,0.9999988792996409,8.26887106026104,0.7816066337846408,1.0869195268108658
0.08750626896493567,0.019135079018112764,0.9999988643457429,8.308951063638276,0.7914192065407202,1.081367631138971
0.09015797408508523,0.019054342581319432,0.9999988498365029,8.346411068210031,0.8007908903330179,1.075826605974204
0.0928096792052348,0.018973710511748988,0.9999988356520955,8.381275972054208,0.8097414947449161,1.0702955697554402
0.09546138432538435,0.01889317020033671,0.9999988216722063,8.413539992792705,0.8182899392908591,1.0647736516710669
0.09811308944553392,0.018812706884964437,0.999998807775209,8.44308719387056,0.8264542934079796,1.0592599535861362
0.10076479456568348,0.018732306290234202,0.9999987938371961,8.46978021686004,0.8342518146508318,1.0537536340986278
0.10341649968583304,0.01865195626565877,0.9999987797307963,8.493624134200239,0.8416989851699459,1.0482538452996542
0.1060682048059826,0.01857164517513797,0.9999987653238975,8.51466616984992,0.8488115465513215,1.042759731089834
0.10871990992613216,0.0184913615658438,0.9999987504781108,8.53292025638632,0.8556045330904861,1.0372704851451364
0.11137161504628172,0.018411093328770743,0.9999987350469722,8.548353393296514,0.8620923035714528,1.0317853079628685
0.11402332016643128,0.018330829969675437,0.9999987188738306,8.561088283319906,0.8682885716177368,1.0263033459469253
0.11667502528658084,0.018250557781719256,0.9999987017893276,8.570898766925437,0.874206434679574,1.0208238990740472
0.1193267304067304,0.01817026594897516,0.9999986836084213,8.578034523448766,0.8798584017186113,1.0153459599459667
0.12197843552687997,0.018089942198757668,0.9999986641267025,8.58234893692104,0.8852564196485506,1.00986884452022
0.12463014064702953,0.018009573334080427,0.9999986431159322,8.583825557400393,0.8904118985876379,1.004391668875543
0.1272818457671791,0.017929149704764242,0.99999862031957,8.582702344747478,0.895335735976321,0.9989135221243904
0.12993355088732866,0.017848657307246017,0.9999985954497829,8.578634239588197,0.9000383396110864,0.9934338171508721
0.13258525600747822,0.01776808685566551,0.9999985681786993,8.571575320106708,0.9045296496432235,0.9879519723102218
0.13523696112762779,0.017687431358792433,0.9999985381257336,8.561473837357182,0.9088191595887736,0.9824675702181834
0.13788866624777735,0.01760668366077136,0.9999985048441449,8.548334269932031,0.9129159363939086,0.9769801243067048
0.1405403713679269,0.017525836287761328,0.9999984678039987,8.532136614944843,0.9168286395981531,0.9714891541445757
0.14319207648807647,0.0174448817112296,0.9999984263697654,8.51288292919978,0.9205655396358173,0.9659941539215626
0.14584378160822603,0.01736381244726344,0.9999983797705316,8.490575317220516,0.924134535314122,0.9604946226200682
0.1484954867283756,0.01728262067554047,0.9999983270596795,8.465190756660594,0.9275431705046772,0.9549900649928815
0.15114719184852515,0.017201298396320605,0.9999982670595393,8.436721755105228,0.9307986500831836,0.949479958981519
0.15379889696867471,0.017119837744939838,0.9999981982840748,8.405176181090159,0.9339078551504643,0.9439637772569532
0.15645060208882428,0.017038230533290708,0.9999981188283942,8.370528200222715,0.9368773575661226,0.9384410086185817
0.15910230720897384,0.016956468202344883,0.9999980262073394,8.332756795072976,0.9397134338242281,0.9329111137032357
0.1617540123291234,0.016874542168456966,0.9999979171137405,8.291860953090563,0.942422078298302,0.9273735322279655
0.16440571744927296,0.01679244362845549,0.9999977870450322,8.24782162126992,0.9450090158803269,0.9218277107420061
0.16705742256942252,0.016710164120496005,0.9999976297064982,8.200658863101228,0.9474797140351062,0.9162730791204171
0.16970912768957208,0.01662769401951962,0.9999974360171284,8.150287900384575,0.9498393942861864,0.9107091043710185
0.17236083280972164,0.01654502390008792,0.9999971923722876,8.096735398913065,0.9520930431410455,0.9051351490060185
0.1750125379298712,0.016462144222510588,0.9999968774224389,8.03997919874402,0.9542454224473433,0.8995506236327666
0.17766424305002076,0.01637904516191991,0.9999964556410428,7.979998494267137,0.9563010791391169,0.8939549211159111
0.18031594817017033,0.016295716471915016,0.9999958632074777,7.916763184262184,0.9582643542560763,0.8883474192228135
0.1829676532903199,0.01621214769013137,0.9999949728264257,7.850257711019733,0.9601393909233681,0.8827274685894337
0.18561935841046945,0.016128328117003522,0.9999934886843937,7.780460885750969,0.961930140392113,0.8770944136609933
0.188271063530619,0.01604424619577271,0.9999905296005415,7.707314758340374,0.9636403630888863,0.8714475857079698
0.19092276865076857,0.01595989038361571,0.9999817631127144,7.630823458442956,0.96527361088879,0.8657862521910102
0.19357447377091813,0.015875282773551633,0.6287197331434446,7.5529981195060385,0.9668330814180501,0.8601097047920897
0.1962261788910677,0.015790306363484077,6.098813450518041e-06,7.464965586968929,0.9331590255952087,0.8544201000551533
0.19887788401121725,0.015704732321423383,2.3377949841218295e-06,7.345194545577995,0.8402225821862049,0.8487267532448636
0.20152958913136682,0.015618960366145788,1.1671367574349513e-06,7.208222711624864,0.7565417766145204,0.8430409577863495
0.20418129425151638,0.015533026149404917,6.486915349461202e-07,7.049117597369648,0.6811950508841812,0.8373715231267499
0.20683299937166594,0.015446992749009405,3.81989280178765e-07,6.861719217086491,0.6133524366125224,0.8317309943587916
0.2094847044918155,0.015360969522473716,2.332715795248497e-07,6.638747469570405,0.5522665862989745,0.8261370821698543
0.21213640961196506,0.015275144013112175,1.4615731540797832e-07,6.372408306619336,0.497264571254694,0.8206145045118012
0.21478811473211462,0.015189835102532506,9.341177896853604e-08,6.055808338566343,0.44774047756146057,0.8151973778168063
0.21743981985226418,0.015105572810087078,6.068890604899373e-08,5.685178514215222,0.40314873463311957,0.8099323393052965
0.22009152497241374,0.015023205809022248,3.99848305162514e-08,5.2627427557874675,0.3629981066002979,0.8048822745990886
0.2227432300925633,0.01494402332117993,2.6656368392403516e-08,4.799122547966396,0.3268462814716452,0.8001305538946618
0.22539493521271287,0.01486985928648949,1.7936687446963623e-08,4.313679749832103,0.2942949988910473,0.795785271243921
0.22804664033286243,0.01480313813316348,1.2146707752902146e-08,3.831690320841477,0.26498566299841353,0.7919826583729429
0.230698345453012,0.014746830487893823,8.257604153468878e-09,3.378598255614036,0.23859539214939954,0.7888889332123764
0.23335005057316155,0.01470424495537784,5.640383394677059e-09,2.9711487896423345,0.21483346202003473,0.7866991323662759
0.2360017556933111,0.014677426312876073,3.871654271770236e-09,2.573640535776178,0.19343810293568398,0.785614963183606
0.23865346081346067,0.01465931574136643,2.490099129426572e-09,1.976564579476635,0.17417361615093932,0.785614935231022
0.24130516593361023,0.014642710587253735,1.246144164564874e-09,1.4982596256900118,0.15682777730958994,0.7856149323698658
0.2439568710537598,0.014627827247517489,1.260813661881678e-10,1.1257698379562586,0.1412094985320672,0.7856149307060432
0.24660857617390936,0.01461473354196573,-8.824284607265144e-10,0.8420135598661758,0.12714672334987617,0.785614929451384
0.24926028129405892,0.014603391426356629,-1.7904954840613514e-09,0.629463521197831,0.1144845312708455,0.7856149283947762
0.2519119864142085,0.014593696749006173,-2.6081233312021904e-09,0.4722514060557357,0.10308343112033574,0.7856149274499366
0.25456369153435804,0.01458551004281608,-3.3443193107265705e-09,0.357053868978468,0.09281782435725301,0.7856149265736783
0.2572153966545076,0.014578677432559934,-4.0071936454887625e-09,0.2732205867794047,0.08357462143621418,0.7856149257416837
0.25986710177465716,0.014573043169688906,-4.604048819679402e-09,0.2125166784783732,0.07525199597322188,0.785614924939195
0.2625188068948067,0.014568456114809926,-5.1414600264010745e-09,0.16871984772217025,0.06775826299029816,0.7856149241568005
0.2651705120149563,0.014564772515764561,7.739323430005646e-08,0.13720380276082042,0.061010868881424346,0.7856149233882912
0.2653100754423326,0.014633659136649907,7.7250631755605e-08,1.2653968544370449,0.06067497412789505,0.7856149233882913
0.2654496388697089,0.014700016202981826,7.74566026646613e-08,1.2686614156714433,0.060340928944425345,0.7901268736533664
0.2655892022970852,0.014766438500821565,7.767712450134323e-08,1.271839175207411,0.06000872314846214,0.7946435191897826
0.2657287657244615,0.014832925218286996,7.79125128097575e-08,1.2749956162158322,0.05967834661168231,0.7991646233675099
0.26586832915183783,0.014899477094888687,7.816312462099347e-08,1.2781332537529337,0.05934978926153518,0.8036902293923394
0.26600789257921414,0.014966094882399073,7.842933733596368e-08,1.2812508256888808,0.05902304108093539,0.8082203917213103
0.26614745600659045,0.015032779281863648,7.871154859576523e-08,1.2843475625303822,0.05869809210795778,0.8127551599894011
0.26628701943396677,0.015099530986609407,7.901017784919526e-08,1.2874234829736233,0.058374932435533766,0.8172945811380425
0.2664265828613431,0.015166350696729168,7.932566783698767e-08,1.2904785261507874,0.058053552211149294,0.8218387027908093
0.2665661462887194,0.015233239073476715,7.965848543986382e-08,1.2935115332176002,0.05773394163654469,0.8263875729300549
0.2667057097160957,0.015300196708164238,8.00091225046097e-08,1.2965211666964591,0.05741609096741594,0.8309412352491818
0.266845273143472,0.015367224367153643,8.037809983215176e-08,1.2995122926834735,0.057099990513117774,0.8354997284285129
0.2669848365708483,0.015434324416206055,8.076598585440159e-08,1.302521941850208,0.05678563063636836,0.8400631125243636
0.2671243999982246,0.015501496706003481,8.11733610179357e-08,1.3054663457275377,0.05647300175295576,0.8446316055336179
0.26726396342560094,0.015568740884147506,8.160081917005157e-08,1.3083871104267073,0.05616209433144573,0.8492050696814311
0.26740352685297725,0.015636057593361508,8.204900706981174e-08,1.3112853929655215,0.05585289889289112,0.8537835453692029
0.26754309028035356,0.015703447526374703,8.25186092140891e-08,1.314161514902863,0.055545406010543294,0.8583670786890917
0.26768265370772987,0.015770911265589646,8.301034816224644e-08,1.317012237095829,0.0552396063095648,0.8629557178736585
0.2678222171351062,0.01583844941804006,8.352498787415322e-08,1.3198397188842783,0.05493549046674377,0.8675494981836165
0.2679617805624825,0.01590606253135534,8.406333654935611e-08,1.3226409250871962,0.05463304921020988,0.8721484649089823
0.2681013439898588,0.015973751133776304,8.462624893471956e-08,1.3254167810671678,0.05433227331915186,0.8767526512876886
0.2682409074172351,0.01604151571853458,8.521463016450003e-08,1.3281655410156228,0.05403315362353668,0.8813620953954422
0.2683804708446114,0.016109356874417714,8.582944045583851e-08,1.3308902807706027,0.05373568100383006,0.8859768288030637
0.26852003427198773,0.01617727517819505,8.647169869905477e-08,1.333588579707626,0.053439846390718894,0.8905968971035516
0.26865959769936404,0.01624527116309505,8.714248486944954e-08,1.3362603826296118,0.05314564076483494,0.8952223365359517
0.26879916112674035,0.016313345363022067,8.784294568113123e-08,1.338905373052652,0.052853055156480165,0.8998531840906268
0.26893872455411666,0.016381498356340563,8.857430016920894e-08,1.3415244883490138,0.052562080645353525,0.9044894764202054
0.26907828798149297,0.016449730627868638,8.933784328670084e-08,1.344114426315525,0.0522727083602795,0.9091312551908215
0.2692178514088693,0.016518042647934956,9.013495177943109e-08,1.3466763510505204,0.051984929478937944,0.9137785490804496
0.2693574148362456,0.01658643496838373,9.096709338643157e-08,1.3492112454883434,0.05169873522759544,0.9184313928215488
0.2694969782636219,0.016654908033295737,9.183583077710495e-08,1.3517153762137617,0.051414116880838426,0.9230898264350693
0.2696365416909982,0.016723462341281435,9.274283062613596e-08,1.3541919014637982,0.051131065761307506,0.9277538752043675
0.2697761051183745,0.01679209838347179,9.368987305830275e-08,1.3566383290406685,0.05084957323943347,0.9324235790263333
0.26991566854575083,0.01686081660666041,9.467885868550857e-08,1.3590545546410608,0.050569630733174824,0.9370989683860549
0.27005523197312714,0.016929617452164054,9.571182022612141e-08,1.3614400383200531,0.05029122970775667,0.9417800745596608
0.27019479540050345,0.01699850135141008,9.679093365290512e-08,1.363794375219388,0.05001436167541116,0.9464669277886385
0.27033435882787976,0.01706746871395743,9.791853052800605e-08,1.3661167620223815,0.049739018195119424,0.9511595578851629
0.27047392225525607,0.017136520011330307,9.909711355991333e-08,1.3684087688312874,0.0494651908723552,0.9558579925695043
0.2706134856826324,0.01720565560926636,1.0032936931105771e-07,1.3706662386168122,0.04919287135882953,0.9605622675873509
0.2707530491100087,0.017274875909271195,1.0161818629927256e-07,1.37289206021525,0.048922051352237254,0.9652724023861331
0.270892612537385,0.017344181321139133,1.0296667603129231e-07,1.3750841760016819,0.04865272259600496,0.969988430126863
0.2710321759647613,0.01741357219570747,1.0437819095743261e-07,1.3772417665834793,0.048384876879040396,0.9747103766589001
0.2711717393921376,0.017483048946985817,1.0585635161987926e-07,1.3793663910586673,0.04811850603548324,0.9794382658344295
0.27131130281951393,0.01755261188956409,1.0740507022358728e-07,1.3814539778552652,0.047853601944457695,0.9841721296491253
0.27145086624689024,0.017622261363423753,1.0902858133687951e-07,1.3835070618075103,0.04759015652982622,0.9889119843315567
0.27159042967426655,0.01769199771983341,1.1073147798169962e-07,1.3855237941497065,0.047328161759945045,0.9936578584867719
0.27172999310164286,0.017761821190236154,1.1251874395722272e-07,1.387501597339332,0.04706760964742119,0.9984097744706781
0.2718695565290192,0.017831732134934993,1.143958033851364e-07,1.3894447370591447,0.04680849224887085,1.0031677453475594
0.2720091199563955,0.01790172912444062,1.1636851030570946e-07,1.391303715008356,0.04655080166467955,1.0079318040439138
0.2721486833837718,0.01797181310389306,1.1844330606554969e-07,1.3931694153398744,0.046294530038763465,1.0127017750096738
0.2722882468111481,0.018041985411064693,1.2062729857143167e-07,1.3949956367181058,0.046039669558333045,1.017477871081364
0.2724278102385244,0.01811224626830896,1.2292821579912086e-07,1.3967812845975338,0.04578621245365811,1.0222601100780817
0.2725673736659007,0.01818259314707427,1.253544367378335e-07,1.3984550682629302,0.04553415099783436,1.0270485070159379
0.27270693709327704,0.01825302735358348,1.2791528565902874e-07,1.4001594115859959,0.04528347750655104,1.031842775984875
0.27284650052065335,0.018323550745920333,1.3062116233785147e-07,1.401820052750816,0.045034184337861626,1.0366432387987639
0.27298606394802966,0.01839416351355029,1.3348345402991192e-07,1.4034389832008918,0.04478626389195646,1.0414499029288908
0.27312562737540597,0.018464865784720914,1.3651478329523858e-07,1.4050126165606067,0.04453970861093619,1.0462627863294758
0.2732651908027823,0.0185356576466185,1.3972917646262115e-07,1.40654132714372,0.04429451097858777,1.0510818937552089
0.2734047542301586,0.018606539280970245,1.431422739211631e-07,1.4080265388075146,0.04405066352016268,1.0559072336594126
0.2735443176575349,0.01867751082364786,1.4677156150421702e-07,1.4094653635293746,0.04380815880215747,1.0607388226814214
0.2736838810849112,0.018748572376586073,1.506366434283591e-07,1.4108578877238978,0.043566989432096775,1.0655766673506866
0.2738234445122875,0.018819729690721855,1.5475958328078117e-07,1.4123529780181285,0.04332714805831919,1.0704207696882044
0.2739630079396638,0.018890986527172096,1.5916530038450644e-07,1.4140444327933321,0.04308862736976591,1.0752711410259856
0.27410257136704014,0.01896234301137866,1.638820436649005e-07,1.415933869536503,0.042851420095772995,1.0801277866002112
0.27424213479441645,0.019033796496345998,1.689417618419648e-07,1.4179486445551521,0.042615519005867256,1.084990716838714
0.27438169822179276,0.019105347960525335,1.7438115126311239e-07,1.420229433600872,0.042380916909565226,1.0898596319413167
0.27452126164916907,0.019176999159670017,1.802425868803897e-07,1.4227087920559136,0.04214760665617927,1.0947348290574928
0.2746608250765454,0.01924875010678467,1.865747559854996e-07,1.4253844205886432,0.041915581134629544,1.0996163164037358
