Time [s],Lmtc [m],STIM [ ],Fsee [N],Gamma [ ],Lcerel [ ]
0.0,0.023000299756695104,0.9999997955174378,1.0230977017754546,0.061062000392915664,1.3563476969122907
0.002638909911870801,0.02301829317252953,0.9999997648743805,1.4606119252760128,0.10305043029139352,1.3563476968989632
0.005277819823741602,0.02291895806546166,0.9999996637699344,2.2466487170216363,0.14316117506405027,1.347773929071135
0.007916729735612403,0.022804937823357872,0.9999995267473248,2.8586688083542127,0.18147819990235292,1.3388120429420904
0.010555639647483205,0.022684816366592045,0.9999993643039662,3.3088866205462657,0.21808171669678011,1.3298301169036189
0.013194549559354006,0.02256290953032454,0.9999991863747526,3.656443872942833,0.25304835080567556,1.3209450546748391
0.015833459471224807,0.022441223602236295,0.9999990010428311,3.9424654837579145,0.2864513014164935,1.3121980055896176
0.018472369383095606,0.022320647209891912,0.9999988144464079,4.190051454553276,0.3183604946781846,1.3036010970932277
0.02111127929496641,0.02220155071692108,0.9999986310327708,4.411918354092685,0.3488427299814761,1.2951541705130072
0.023750189206837212,0.022084060899285305,0.99999845388902,4.615297598214809,0.3779618197089924,1.286851714355341
0.026389099118708015,0.021968187810966606,0.9999982850536914,4.804502711247014,0.4057787227506699,1.278685996839496
0.029028009030578818,0.021853885444636748,0.9999981257790187,4.98224098127548,0.43235167206241965,1.2706485521236532
0.03166691894244962,0.02174108179830197,0.9999979767396654,5.150297741439258,0.457736296532215,1.2627308983855245
0.03430582885432042,0.021629694198463834,0.9999978381935922,5.309906063384549,0.481985737405773,1.2549248790303067
0.036944738766191226,0.02151963722588191,0.9999977101035475,5.461954308125927,0.5051507595129806,1.2472228129918872
0.03958364867806203,0.021410826800225442,0.9999975922275647,5.607107151441456,0.527279857525813,1.2396175468352209
0.04222255858993283,0.021303182216626373,0.9999974841856862,5.745878746125779,0.5484193574685396,1.2321024565224696
0.044861468501803635,0.02119662707083319,0.9999973855087444,5.878678469723132,0.5686135136914753,1.2246714241590664
0.04750037841367444,0.02109108957708135,0.9999972956737295,6.005840445486495,0.5879046015103323,1.217318803297539
0.05013928832554524,0.020986502556489633,0.9999972141292045,6.12764315925052,0.6063330057044115,1.2100393800982387
0.052778198237416044,0.02088280325175977,0.999997140313359,6.244322856047894,0.6239373050583692,1.2028283342201938
0.055417108149286846,0.02077993305644485,0.9999970736666441,6.356082924723931,0.6407543531241667,1.1956812014216471
0.05805601806115765,0.020677837208907344,0.9999970136404241,6.463100629786403,0.656819355371979,1.188593838797618
0.06069492797302845,0.02057646447917847,0.9999969597027092,6.565532048011542,0.6721659428913781,1.1815623929997197
0.06333383788489926,0.02047576686419799,0.9999969113417566,6.663515763381372,0.6868262427969213,1.1745832714671178
0.06597274779677005,0.02037569929946812,0.9999968680681197,6.757175685476139,0.7008309454854289,1.167653116532476
0.06861165770864085,0.02027621939080159,0.9999968294155718,6.846623237046507,0.7142093688856689,1.1607687821878276
0.07125056762051164,0.020177287167320392,0.999996794941221,6.931959079293884,0.726989519834898,1.1539273132650198
0.07388947753238244,0.020078864855430527,0.9999967642250448,7.01327449251915,0.7391981527107064,1.1471259267819705
0.07652838744425323,0.01998091667272071,0.9999967368690152,7.090652495676504,0.7508608254408757,1.140361995216801
0.07916729735612403,0.019883408640346458,0.9999967124959355,7.164168765088934,0.7620019530084934,1.1336330314896252
0.08180620726799483,0.01978630841230664,0.9999966907480767,7.233892396444008,0.7726448585643148,1.1269366754522074
0.08444511717986562,0.019689585119999502,0.9999966712856784,7.29988654283173,0.7828118222533634,1.1202706817064532
0.08708402709173642,0.019593209230501018,0.9999966537853515,7.362208953477953,0.7925241278579878,1.1136329085925498
0.08972293700360721,0.019497152417103265,0.9999966379384168,7.420912431958547,0.8018021073550118,1.1070213082058606
0.09236184691547801,0.0194013874407635,0.9999966234491898,7.476045228376142,0.8106651834802538,1.100433917318188
0.0950007568273488,0.01930588804123155,0.9999966100332218,7.527651376786265,0.8191319103895259,1.0938688490936703
0.0976396667392196,0.01921062883673791,0.9999965974154957,7.575770986758597,0.8272200125012291,1.0873242855025074
0.1002785766510904,0.019115585231231684,0.9999965853285685,7.620440496133994,0.834946421601867,1.080798470346942
0.1029174865629612,0.019020733328256392,0.9999965735106472,7.661692890634712,0.8423273122921491,1.0742897028237597
0.10555639647483199,0.018926049850639257,0.9999965617035801,7.699557894895003,0.849378135847892,1.0677963315560075
0.10819530638670279,0.018831510901408152,0.9999965496507363,7.7339912390153955,0.8561136525666015,1.0613167490339475
0.11083421629857358,0.018737088919837303,0.9999965370947425,7.764692615338946,0.8625479626674539,1.0548493864115236
0.11347312621044438,0.018642761461148977,0.999996523775037,7.791644704579133,0.8686945358093525,1.0483927086099667
0.11611203612231517,0.018548507070148025,0.9999965094251917,7.81486743308543,0.8745662392888609,1.0419452096847048
0.11875094603418597,0.018454304556402647,0.9999964937699413,7.834377702092943,0.8801753649770236,1.0355054084155908
0.12138985594605677,0.018360132935704432,0.9999964765218446,7.850189473525428,0.8855336550514704,1.0290718440836348
0.12402876585792756,0.018265971373142762,0.9999964573774863,7.862313840800559,0.8906523265776511,1.022643072400072
0.12666767576979837,0.018171799127364135,0.9999964360131,7.87075908562251,0.8955420949906547,1.0162176615556884
0.12930658568166917,0.018077595495602138,0.9999964120794672,7.875530721541605,0.9002131965267446,1.0097941883599706
0.13194549559353996,0.017983339945142254,0.9999963851960578,7.876642963994638,0.904675409651546,1.003371234440822
0.13458440550541076,0.01788901345193947,0.9999963549496828,7.874189713727595,0.9089380755297285,0.9969473987330891
0.13722331541728156,0.01779459244607898,0.9999963208981368,7.867749668204242,0.9130101175792388,0.9905215443969119
0.13986222532915235,0.01770006263380576,0.9999962825530773,7.857216965741271,0.9169000601512515,0.9840928204778271
0.14250113524102315,0.017605411482566835,0.9999962393629322,7.842585571729717,0.9206160463739991,0.9776603889645228
0.14514004515289394,0.01751062627845617,0.9999961906988982,7.82384754236298,0.9241658551978859,0.9712234052479144
0.14777895506476474,0.017415694105041027,0.9999961358377566,7.800993010271315,0.9275569176777286,0.9647810167783323
0.15041786497663553,0.017320601821168652,0.9999960739403129,7.7740101648744915,0.9307963325261047,0.9583323616833422
0.15305677488850633,0.017225336037640204,0.9999960040240599,7.742885227374741,0.9338908809701996,0.9518765673398855
0.15569568480037713,0.017129883092626773,0.9999959249281323,7.707602420268651,0.9368470409430548,0.9454127488939961
0.15833459471224792,0.01703422902568793,0.9999958352678531,7.668143931212794,0.9396710006386244,0.9389400077207918
0.16097350462411872,0.0169383595502383,0.9999957333750336,7.62448987103328,0.9423686714586316,0.93245742981688
0.16361241453598951,0.016842260024289728,0.9999956172184903,7.576618225622553,0.9449457003777795,0.9259640841166266
0.1662513244478603,0.016745915419276707,0.9999954842966413,7.5245048014176925,0.9474074817524557,0.9194590207229744
0.1688902343597311,0.01664931028675004,0.9999953314899818,7.468123164101302,0.9497591685965503,0.9129412690426236
0.1715291442716019,0.0165524287226976,0.9999951548547509,7.4074445701093286,0.9520056833464372,0.9064098358143989
0.1741680541834727,0.0164552543292209,0.9999949493284451,7.342437890467119,0.9541517281353294,0.8998637030184773
0.1768069640953435,0.016357770173261878,0.9999947082998207,7.273069526406391,0.9562017945950011,0.8933018256528844
0.1794458740072143,0.016259958742033825,0.9999944229645409,7.1993033161386615,0.9581601731999624,0.8867231293621599
0.18208478391908509,0.016161801894764065,0.9999940813304504,7.12110043207477,0.9600309621649532,0.8801265079014259
0.18472369383095588,0.016063280810301384,0.9999936666279947,7.038419267682772,0.9618180759000675,0.8735108204171453
0.18736260374282668,0.0159643759300777,0.999993154664755,6.95121531306587,0.9635252530166886,0.8668748885236465
0.19000151365469747,0.01586506689583802,0.9999925092038854,6.859441018214192,0.9651560638571036,0.8602174931519223
0.19264042356656827,0.015765332481464483,0.9999916733993686,6.763045642734882,0.9667139174807322,0.8535373711442976
0.19527933347843907,0.015665150518114523,0.9999905527121856,6.661975090684714,0.968202067954934,0.8468332115651516
0.19791824339030986,0.01556449781176733,0.9999889774567533,6.556171728899681,0.9696236196005295,0.8401036516939885
0.20055715330218066,0.015463350052120788,0.9999866096143797,6.445574186891682,0.9709815303278776,0.8333472726626342
0.20319606321405145,0.015361681711596055,0.999982665246791,6.3301171358333805,0.9722786106565892,0.8265625946931995
0.20583497312592225,0.015259465932977764,0.9999748173040908,6.209731043005343,0.9735175103657915,0.8197480718877946
0.20847388303779305,0.015156674403968068,0.9999517199965993,6.084341897104016,0.974700656676463,0.8129020865160531
0.21111279294966384,0.015053310625813335,0.4948114250386133,5.955656740804854,0.9758298608983544,0.8060229427552379
0.21375170286153464,0.01494907544223853,1.561068010201769e-05,5.807140419848377,0.928142599144781,0.7991117751292475
0.21639061277340543,0.014843789425940272,5.998256774068788e-06,5.626368707702024,0.83612986259979,0.7921736990965542
0.21902952268527623,0.014737700098408954,3.0198511995238062e-06,5.42418588958487,0.7532382383000851,0.7852132672575355
0.22166843259714702,0.014630705665188343,1.6997232930668696e-06,5.195165043796069,0.6785641245442848,0.7782327793445354
0.22430734250901782,0.014522679265818711,1.0185366978955566e-06,4.932884789234243,0.6112930086568747,0.7712353727882125
0.22694625242088862,0.014413469144684263,6.369243847780807e-07,4.6304585927616815,0.5506910270078308,0.7642249924875772
0.2295851623327594,0.014302907257056751,4.1200561239840895e-07,4.281754411955803,0.4960970369450865,0.7572061820940192
0.2322240722446302,0.014190831641001532,2.747489785306602e-07,3.8834976215621753,0.44691542677731994,0.7501835872109024
0.234862982156501,0.014077124755919695,1.8874036192742839e-07,3.4380755204661098,0.4026096264109855,0.7431610348615704
0.2375018920683718,0.013961759983541527,1.3360852435882945e-07,2.9561362004119496,0.36269625724965626,0.7361400405866152
0.2401408019802426,0.013844834646353579,9.748201730623003e-08,2.4574109335079,0.32673986042426234,0.7291176365787436
0.2427797118921134,0.013726572982878002,7.322480378229598e-08,1.9686295909675076,0.2943481469143338,0.7220838465266151
0.2454186218039842,0.013607362623250362,5.641344549464016e-08,1.5194164542641808,0.2651677181950313,0.7150221093655025
0.24805753171585498,0.013488079607184827,4.422289904240001e-08,1.1370372004230227,0.23888021093508666,0.707929881587389
0.2506964416277258,0.013371042131725276,3.4951087737244545e-08,0.8342352591229718,0.2151988237956819,0.7009074638752514
0.25333535153959663,0.013261301603535097,2.7843896982973196e-08,0.5951889700763217,0.19386518851243023,0.6943133032992935
0.25597426145146746,0.013165572500700839,2.2535869917619712e-08,0.39748059194036933,0.1746465511583042,0.6886684323560305
0.2586131713633383,0.01308643897752584,1.8534056244880958e-08,0.23810062672785193,0.15733323279833378,0.6841634453553604
0.2612520812752091,0.01301987617515279,1.5350969573820494e-08,0.11693294288516864,0.14173634184168968,0.6805366600088816
0.2638909911870799,0.013000299756689485,1.1856348078248514e-07,0.4039612507399528,0.12768571320243477,0.6773763995489401
0.2643878709163031,0.013017988861574523,1.1672411300934127e-07,0.6877738600053193,0.12520033781413195,0.6773763995464482
0.2648847506455263,0.013044867156519736,1.156176572731121e-07,0.6821126301662153,0.12276334353003865,0.679228919196432
0.2653816303747495,0.0130750493338698,1.1463262089077295e-07,0.6773431070461801,0.1203737885618323,0.6813032530134553
0.2658785101039727,0.013108407588893872,1.1375671288085395e-07,0.673416342899688,0.11803074944245012,0.6835908443440528
0.26637538983319586,0.01314482093043427,1.1297972125492358e-07,0.6702667604674964,0.1157333206811056,0.6860836716532797
0.26687226956241905,0.013184175551983068,1.1229314562935154e-07,0.6678236909535975,0.11348061441339682,0.6887742296274346
0.26736914929164224,0.013226364675883277,1.1168989809037753e-07,0.6660170835881719,0.1112717600582186,0.6916554957571996
0.2678660290208654,0.013271288174468045,1.111640614951243e-07,0.6647802816012012,0.10910590398134798,0.694720892711414
0.2683629087500886,0.01331885210666121,1.1071069446098829e-07,0.664051270670244,0.10698220916557309,0.6979642508417855
0.2688597884793118,0.013368968235514471,1.1032567382823506e-07,0.6637731166824187,0.10489985488723996,0.7013797726409192
0.269356668208535,0.01342155355792286,1.100055670969018e-07,0.6638939725786747,0.10285803639909265,0.7049619998545471
0.2698535479377582,0.013476529860974772,1.097475288626122e-07,0.6643668613692173,0.10085596461928492,0.7087057834322219
0.27035042766698136,0.013533823310896372,1.095492165279785e-07,0.6651493504570557,0.09889286582644355,0.7126062562608753
0.27084730739620455,0.013593364076177023,1.0940872156341986e-07,0.6662031818667138,0.09696798136066616,0.7166588085178599
0.27134418712542774,0.013655085984216688,1.0932451337507786e-07,0.667493894491137,0.0950805673303379,0.7208590654371664
0.2718410668546509,0.01371892620972083,1.0929539345099767e-07,0.6689904581137225,0.0932298943246545,0.725202867271864
0.2723379465838741,0.0137848249925649,1.093204579369416e-07,0.6706649294566939,0.09141524713174069,0.7296862512411078
0.2728348263130973,0.013852725382680725,1.0939906717003765e-07,0.672492134957928,0.08963592446225456,0.7343054352628512
0.2733317060423205,0.013922573009529645,1.0953082099536997e-07,0.6744493817543012,0.08789123867837238,0.7390568032893593
0.2738285857715437,0.013994315873834488,1.0971553892571132e-07,0.6765161965106123,0.08618051552804797,0.74393689207933
0.27432546550076686,0.014067904159397848,1.0995324439179487e-07,0.6786740907251009,0.08450309388444523,0.7489423792568184
0.27482234522999005,0.014143290063008048,1.1024415248052081e-07,0.6809063506349273,0.08285832549044242,0.7540700725225382
0.27531922495921324,0.014220427640612116,1.1058866067952524e-07,0.6831978496367651,0.08124557470810957,0.759316899897301
0.2758161046884364,0.014299272668107522,1.1098734224496101e-07,0.6855348811063479,0.07966421827306287,0.7646799008902178
0.2763129844176596,0.014379782515267045,1.114409418901037e-07,0.6879050095707928,0.07811364505360048,0.7701562184958918
0.2768098641468828,0.014461916031461575,1.1195037355935456e-07,0.6902969383120985,0.07659325581452707,0.7757430919352125
0.277306743876106,0.014545633441983386,1.1251672010842026e-07,0.6927003916310248,0.07510246298557571,0.7814378500636394
0.2778036236053292,0.014630896253897093,1.1314123475932281e-07,0.695106010160102,0.07364069043433798,0.787237905379112
0.27830050333455236,0.014717667170458365,1.1382534424038504e-07,0.697505257772457,0.07220737324361387,0.7931407485690865
0.27879738306377555,0.014805910013241372,1.1457065355803523e-07,0.6998903387838223,0.0708019574930965,0.7991439435427012
0.27929426279299874,0.014895589651206912,1.1537895238050527e-07,0.7022541242851831,0.0694239000453062,0.8052451228998954
0.2797911425222219,0.014986671936023906,1.1625222304437799e-07,0.7045900865718172,0.06807266833569212,0.8114419837944311
0.2802880222514451,0.015079123643029836,1.1719265022445633e-07,0.7068922407507077,0.06674774016681984,0.8177322841523726
0.2807849019806683,0.015172912417279789,1.182026323364637e-07,0.709155092712624,0.06544860350656558,0.8241138392116101
0.2812817817098915,0.01526800672419188,1.192847947714647e-07,0.7113735927484249,0.06417475629023914,0.8305845183516521
0.2817786614391147,0.015364375804347852,1.2044200509143584e-07,0.7135430941720634,0.06292570622655878,0.8371422421861116
0.28227554116833786,0.015461989632053811,1.2167739034791804e-07,0.7156593163863871,0.06170097060740362,0.8437849798931795
0.28277242089756105,0.015560818877306612,1.2299435672102326e-07,0.7177183118928928,0.06050007612126977,0.8505107467619174
0.28326930062678424,0.015660834870847937,1.243966117151665e-07,0.7197164368042187,0.059322558670358086,0.8573176019344692
0.2837661803560074,0.015762009572020716,1.2588818919180788e-07,0.7216503244689519,0.05816796319122283,0.8642036463263204
0.2842630600852306,0.015864315539171264,1.2747347756941433e-07,0.7235168618632085,0.05703584347891266,0.8711670207085261
0.2847599398144538,0.01596772590236676,1.2915725157817768e-07,0.7253131684430125,0.055925762014534794,0.8782059039374523
0.285256819543677,0.016072214338220422,1.3094470802342193e-07,0.7270365771863839,0.054837289796177094,0.8853185113189952
0.2857536992729002,0.01617775504663763,1.3284150608906332e-07,0.7286846175849092,0.053770006173121686,0.8925030930955444
0.28625057900212336,0.016284322729314606,1.34853812803358e-07,0.7302550003716377,0.05272349868328707,0.8997579330450909
0.28674745873134655,0.016391892569837804,1.3698835439639016e-07,0.7317456037962434,0.05169736289383525,0.9070813471829181
0.28724433846056974,0.016500440215246954,1.3925247440589033e-07,0.7331544612794868,0.05069120224488249,0.9144716825572343
0.2877412181897929,0.016609941758937735,1.4165419953944218e-07,0.7344797502977716,0.049704627896254135,0.9219273161309148
0.2882380979190161,0.016720373724792365,1.4420231448238392e-07,0.735719782365109,0.0487372585772233,0.929446653742293
0.2887349776482393,0.016831713052436314,1.4690644705856877e-07,0.7368729939944523,0.047788720439176174,0.9370281291385574
0.2892318573774625,0.0169439370835296,1.497771654141281e-07,0.7379379385332953,0.04685864691114742,0.9446702030759566
0.2897287371066857,0.017057023549009162,1.5282608921325653e-07,0.7389132787799016,0.04594667855816898,0.952371362481508
0.29022561683590886,0.017170950557206643,1.5606601722340258e-07,0.7397977802967111,0.04505246294237914,0.9601301196714108
0.29072249656513205,0.017285696582772937,1.5951107414245896e-07,0.7405903053464691,0.04417565448683746,0.9679450116217873
0.29121937629435524,0.017401240456346743,1.6317688010478125e-07,0.7412898073846154,0.04331591434199349,0.9758145992877618
0.2917162560235784,0.01751756135491031,1.67080747024731e-07,0.7418953260486117,0.04247291025475836,0.9837374669672503
0.2922131357528016,0.01763463879278024,1.712419068329574e-07,0.7424059825911667,0.04164631644012888,0.9917122217061283
0.2927100154820248,0.01775245261272324,1.7568177752424654e-07,0.7428209669752618,0.040835813455314895,0.9997374927417466
0.293206895211248,0.017870982972152435,1.8042427254252998e-07,0.7431394587239553,0.04004108807632225,1.0078119308500124
0.2937037749404712,0.017990210334849432,1.8549616676332013e-07,0.7433607313446153,0.039261833176944275,1.0159342074062907
0.29420065466969436,0.018110115472957204,1.9092753192298265e-07,0.7434841989391969,0.03849774761011588,1.0241030143549095
0.29469753439891755,0.018230679458970597,1.9675225121027468e-07,0.7435093394823802,0.03774853609158585,1.0323170639418144
0.29519441412814074,0.018351883659681933,2.0300863278889976e-07,0.7434356920448608,0.03701390908586348,1.040575088313345
0.2956912938573639,0.018473709730505463,2.0974014558488127e-07,0.7432628542772981,0.03629358269439754,1.0488758391397341
0.2961881735865871,0.018596139610151333,2.1699630667783154e-07,0.7429904800708358,0.035587278545946066,1.0572180872616483
0.2966850533158103,0.018719155611814767,2.2483375796299528e-07,0.7426200931396968,0.03489472368909781,1.0656006223582117
0.2971819330450335,0.018842762312278088,2.3331758083496388e-07,0.7425682975341235,0.03421565048690664,1.0740222526350656
0.2976788127742567,0.018966959726231674,2.425229125363542e-07,0.7431605762641895,0.03354979651360265,1.0824818045311286
