Time [s],Lmtc [m],STIM [ ],Fsee [N],Gamma [ ],Lcerel [ ]
0.0,0.021779690032649898,0.9999997008386433,3.203359852535273,0.1620243114777509,1.2683448857269757
0.0017485726861326365,0.021719961493584197,0.9999996300467526,3.679318047809457,0.18704583353730603,1.2634770465799883
0.003497145372265273,0.021654253138033756,0.9999995484938047,4.053513105631526,0.21132022346693646,1.2584082101527065
0.00524571805839791,0.0215848825076775,0.9999994583300889,4.350262948309445,0.23486978993352217,1.2532315903361446
0.006994290744530546,0.021513284172606603,0.9999993615520186,4.591133587491925,0.2577161755426188,1.2479991768882603
0.008742863430663182,0.021440352011932333,0.9999992599461738,4.792165692898005,0.27988037672211846,1.2427415535066433
0.01049143611679582,0.02136665061065577,0.9999991550662692,4.964553793797223,0.30138276301052247,1.237477442216722
0.012240008802928456,0.021292542453233747,0.9999990482330255,5.115957286159389,0.322243095768589,1.2322186240948942
0.013988581489061094,0.021218263939364438,0.9999989405477455,5.251617761034936,0.3424805463322566,1.2269726317144887
0.01573715417519373,0.02114397119115488,0.9999988329129722,5.3751573558348715,0.3621137136239356,1.221744299554053
0.017485726861326368,0.021069768117028202,0.9999987260559088,5.489115157246311,0.38116064123855253,1.2165366964526578
0.019234299547459005,0.020995723958277306,0.9999986205519786,5.595300315532766,0.39963883402011285,1.2113517075130855
0.020982872233591642,0.02092188449814748,0.9999985168470417,5.695023987652198,0.417565274143999,1.2061904088236466
0.02273144491972428,0.0208482793758729,0.9999984152775312,5.789252700630844,0.43495643671972345,1.2010533152996448
0.024480017605856916,0.020774926956259137,0.9999983160882292,5.878710876606229,0.45182830492839215,1.195940548380748
0.026228590291989554,0.020701837632963918,0.9999982194476699,5.963950271759019,0.4681963847087015,1.1908519517204534
0.02797716297812219,0.020629016107878345,0.999998125461307,6.045397663267838,0.48407571900487845,1.18578717231923
0.029725735664254828,0.020556462988414664,0.9999980341826579,6.123388060300921,0.49948090158958,1.1807457182156993
0.03147430835038746,0.020484175922322156,0.9999979456226572,6.198188154326678,0.514426090474377,1.1757269999825022
0.033222881036520095,0.020412150413781673,0.9999978597574578,6.270013099853382,0.5289250209200892,1.1707303608517816
0.03497145372265273,0.02034038041652541,0.9999977765348974,6.33903867732987,0.5429910180588705,1.1657550987435958
0.03672002640878536,0.020268858768804392,0.9999976958798318,6.405410217504839,0.556637009139599,1.160800482455563
0.038468599094917996,0.020197577514764063,0.9999976176985065,6.469249226315531,0.569875535407784,1.1558657635955396
0.04021717178105063,0.02012652814329485,0.99999754188212,6.530658357628503,0.5827187636308762,1.1509501853804414
0.041965744467183264,0.02005570176630327,0.9999974683097039,6.589725185430177,0.5951784972795436,1.1460529891084947
0.0437143171533159,0.019985089252094464,0.9999973968504309,6.646525094173296,0.6072661873751678,1.1411734188916418
0.04546288983944853,0.01991468132521135,0.9999973273654378,6.701123514696579,0.6189929430135065,1.1363107250788054
0.047211462525581165,0.019844468641018,0.9999972597092411,6.753577669714825,0.6303695415741805,1.131464166689004
0.0489600352117138,0.019774441841139537,0.999997193730805,6.803937948337747,0.641406438625352,1.126633013092527
0.05070860789784643,0.019704591594305064,0.9999971292743114,6.852248997471347,0.6521137775326872,1.1218165451192705
0.052457180583979066,0.019634908626003117,0.9999970661796751,6.898550595305058,0.6625013987814218,1.1170140557298074
0.0542057532701117,0.019565383739524326,0.9999970042828331,6.942878355700857,0.6725788490200899,1.1122248503523353
0.05595432595624433,0.01949600783034891,0.9999969434158344,6.985264300336129,0.6823553898342224,1.1074482469643876
0.05770289864237697,0.019426771895375672,0.9999968834067487,7.025737326641695,0.6918400062580663,1.1026835759798452
0.0594514713285096,0.019357667038142866,0.9999968240794066,7.064323593034288,0.7010414150321496,1.0979301799878638
0.061200044014642234,0.019288684470929105,0.9999967652529784,7.101046838046559,0.7099680726142675,1.093187413379685
0.06294861670077487,0.019219815514422534,0.9999967067413957,7.135928646265309,0.7186281829512563,1.0884546418911243
0.06469718938690751,0.019151051595493067,0.9999966483526133,7.168988671184295,0.7270297050186847,1.0837312420821896
0.06644576207304015,0.019082384243484365,0.9999965898877037,7.200244822932654,0.7351803601353964,1.0790166007704007
0.06819433475917279,0.019013805085350284,0.9999965311397759,7.229713427188253,0.7430876390596117,1.0743101144305363
0.06994290744530543,0.018945305839888904,0.999996471892699,7.257409360305406,0.7507588088731153,1.0696111885705466
0.07169148013143807,0.01887687831055259,0.9999964119196101,7.28334612219897,0.7582009196598449,1.0649192370910174
0.07344005281757071,0.018808512379388666,0.999996350981176,7.30741756206721,0.7654208109850171,1.0602336816337155
0.07518862550370335,0.018740198167549627,0.9999962888235744,7.329525633170861,0.7724251181807382,1.055553950923269
0.07693719818983599,0.018671927719694194,0.9999962251761441,7.349681183190204,0.7792202784438683,1.0508794801048744
0.07868577087596863,0.018603693130614555,0.9999961597486517,7.367893936619635,0.7858125367517383,1.046209710079985
0.08043434356210127,0.018535486537058065,0.9999960922280985,7.384172551014209,0.7922079516011422,1.0415440868411863
0.08218291624823391,0.018467300109337136,0.9999960222749813,7.398524665639337,0.7984124005758726,1.03688206080686
0.08393148893436655,0.01839912604275208,0.9999959495188954,7.4109569435031615,0.8044315857479011,1.0322230861557464
0.0856800616204992,0.01833095654884203,0.999995873553339,7.421475107584018,0.8102710389171472,1.0275666201611073
0.08742863430663184,0.01826278384647085,0.9999957939295476,7.430083971927951,0.8159361266946423,1.0229121225238693
0.08917720699276448,0.018194600152747945,0.999995710149134,7.436787468178255,0.8214320554337199,1.0182590547038246
0.09092577967889712,0.01812639767377812,0.9999956216552549,7.441588668004925,0.8267638760137505,1.013606879247737
0.09267435236502976,0.018058168595229553,0.9999955278219446,7.444489801823464,0.8319364884807702,1.008955059112987
0.0944229250511624,0.017989905072704464,0.99999542794115,7.445492274126751,0.8369546465492226,1.00430305698519
0.09617149773729504,0.01792160002069814,0.999995321208248,7.4446444187103955,0.8418229619688975,0.999650334588048
0.09792007042342768,0.017853244331627036,0.9999952067118748,7.441833310464256,0.8465459087610382,0.994996400523085
0.09966864310956032,0.01778483013780866,0.99999508341139,7.4368909044549945,0.8511278273276595,0.990340911682836
0.10141721579569296,0.017716352772918487,0.9999949501012495,7.429815794327096,0.8555729284374924,0.9856835541752077
0.1031657884818256,0.017647807513004484,0.9999948053738305,7.420606002874655,0.859885297091841,0.9810240118901096
0.10491436116795824,0.017579189573035434,0.9999946475731005,7.409258984963092,0.8640688962739019,0.9763619662732853
0.10666293385409088,0.01751049410323849,0.9999944747350829,7.395771629084886,0.8681275705847485,0.971697096091119
0.10841150654022352,0.01744171618522184,0.9999942845104952,7.3801402576249115,0.8720650497689628,0.967029077186145
0.11016007922635616,0.017372850827877314,0.9999940740630034,7.362360625895961,0.8758849521326898,0.9623575822229566
0.1119086519124888,0.017303892963055338,0.9999938399336087,7.342427919992276,0.8795907878565892,0.9576822804241024
0.11365722459862145,0.017234837441003438,0.9999935778572379,7.320336753497145,0.8831859622058149,0.9530028372955012
0.11540579728475409,0.017165679025557556,0.9999932825106423,7.296081163070331,0.8866737786386707,0.9483189143408359
0.11715436997088673,0.017096412389073706,0.9999929471595801,7.269654602931759,0.8900574418149161,0.9436301687643116
0.11890294265701937,0.017027032107085952,0.9999925631549748,7.241049938248802,0.8933400605037086,0.9389362531610953
0.12065151534315201,0.016957532652674384,0.999992119196822,7.210259437426619,0.8965246503896733,0.934236815194665
0.12240008802928465,0.01688790839052528,0.9999916002305297,7.177274763292559,0.8996141367732062,0.9295314972602371
0.12414866071541729,0.016818153570663307,0.9999909857420981,7.1420869631577135,0.9026113571571924,0.9248199361333467
0.12589723340154993,0.01674826232183333,0.9999902470319484,7.104686457730105,0.9055190637055822,0.9201017626025675
0.12764580608768256,0.016678228644507246,0.9999893426743185,7.065063028843946,0.9083399255471536,0.9153766010852796
0.12939437877381518,0.016608046403488213,0.9999882105775293,7.023205805957111,0.9110765308749055,0.910644069225279
0.1311429514599478,0.01653770932008206,0.999986753253162,6.9791032513508755,0.913731388745694,0.9059037774709356
0.13289152414608044,0.016467210963801958,0.9999848083907045,6.932743143935619,0.9163069303862786,0.9011553286324913
0.13464009683221306,0.016396544743568598,0.9999820842260374,6.88411256150686,0.918805509581754,0.8963983174169897
0.1363886695183457,0.016325703898362767,0.999977998320069,6.83319786116163,0.9212294011225359,0.8916323299392489
0.13813724220447832,0.016254681487278936,0.9999711954773361,6.7799846572416556,0.9235807944837855,0.8868569432072734
0.13988581489061094,0.01618347037891447,0.9999576300405133,6.724457795257764,0.925861773298994,0.8820717245808063
0.14163438757674357,0.016112063240057064,0.9999173096679512,6.666601320559074,0.9280742381853289,0.8772762312035106
0.1433829602628762,0.01604046860032149,0.6110733847614379,6.607303622390815,0.9302194360532314,0.8724700094236759
0.14513153294900882,0.01596857045821376,3.03278723805365e-05,6.539686987477761,0.9088876666075489,0.8676535462947471
0.14688010563514145,0.015896197415946542,1.2755743969883299e-05,6.452327836310704,0.8481394352413956,0.8628293080514892
0.14862867832127408,0.01582358036845196,7.056069219407741e-06,6.356546937200681,0.7914504996343865,0.8579995555709385
0.1503772510074067,0.015750701461801447,4.367313329920066e-06,6.250928304992936,0.7385503261071568,0.8531650860970924
0.15212582369353933,0.015677540580640022,2.8736797617992534e-06,6.133797862543873,0.6891858714043999,0.8483269656926961
0.15387439637967196,0.015604075372784876,1.965256776926092e-06,6.003214854043076,0.6431208845573008,0.8434865832330317
0.15562296906580458,0.015530281638844725,1.38057817621239e-06,5.856987979743526,0.600134865072629,0.8386457126930432
0.1573715417519372,0.015456134345391101,9.896479595865147e-07,5.692731618095455,0.5600220334459884,0.8338065844001846
0.15912011443806984,0.01538160961479814,7.210859890506404e-07,5.507980938293211,0.5225903559842516,0.8289719659011558
0.16086868712420246,0.015306688132644955,5.328388098902415e-07,5.300385586812892,0.4876606299402009,0.8241452531819577
0.1626172598103351,0.01523136045118952,3.9881600868150677e-07,5.067996603730882,0.4550656278399494,0.8193305732869842
0.16436583249646772,0.01515563458874785,3.021892124433252e-07,4.809646212652783,0.4246492981111158,0.8145329000540139
0.16611440518260034,0.01507954605225407,2.3177678906825384e-07,4.525392098025104,0.3962660186938808,0.8097581859062422
0.16786297786873297,0.015003169895595797,1.7997634480783052e-07,4.216958357979305,0.36977990029975605,0.8050135146732111
0.1696115505548656,0.014926633728340662,1.4152527715206252e-07,3.8880652921128234,0.3450641361030104,0.8003072838174718
0.17136012324099822,0.01485012997998353,1.1272843964311182e-07,3.54452154912823,0.3220003948165071,0.7956494313412545
0.17310869592713085,0.014773925799705562,9.096110619407307e-08,3.1939823162671694,0.3004782542833103,0.7910517415609406
0.17485726861326348,0.014759936936621408,2.0187673427764397e-07,5.5749500779546315,0.28039467289435305,0.7865283253969048
0.17560665690732033,0.014754640819480625,1.956871133621856e-07,5.30439358383092,0.27220374179621654,0.7865283253968729
0.17635604520137718,0.014749251154246464,1.896783155515483e-07,5.035966221668396,0.2642520939269699,0.7865283263648645
0.17710543349543403,0.01474378475575786,1.838450539420347e-07,4.770836067051292,0.2565327390601126,0.7865283273962738
0.17785482178949089,0.014738258930358022,1.7818220061205138e-07,4.510110082867846,0.24903889117596087,0.7865283284988039
0.17860421008354774,0.014732691281433239,1.726847774439273e-07,4.254819984910342,0.24176396249611523,0.7865283296812704
0.1793535983776046,0.014727099461065641,1.6734795174760918e-07,4.005907252720085,0.23470155769220044,0.7865283309538027
0.18010298667166144,0.014721500930252516,1.6216703201227728e-07,3.7642112172567863,0.22784546826378593,0.786528332328098
0.1808523749657183,0.01471591273455548,1.5713746378217513e-07,3.5304604577109138,0.22118966708054583,0.7865283338177332
0.18160176325977515,0.014710351300940713,1.5225482565305537e-07,3.3052675663255835,0.21472830308385937,0.7865283354385649
0.182351151553832,0.014704832260258333,1.4751482538576168e-07,3.0891271792871566,0.20845569614319462,0.7865283372092368
0.18310053984788885,0.014699370298393502,1.4291329613358254e-07,2.8824170339192845,0.2023663320627541,0.7865283391518357
0.1838499281419457,0.01469397903770648,1.384461927801318e-07,2.685401704594444,0.19645485773399096,0.7865283412927583
0.18459931643600255,0.014688670949052945,1.3410958838464308e-07,2.4982385954231665,0.19071607642973762,0.7865283436638606
0.1853487047300594,0.014683457293510123,1.2989967073171837e-07,2.3209857270279706,0.18514494323580577,0.7865283463040289
0.18609809302411626,0.014678348091975022,1.2581273898275393e-07,2.1536108449243723,0.17973656061604537,0.7865283492613518
0.1868474813181731,0.014673352120075348,1.2184520042652418e-07,1.996001393611864,0.17448617410696224,0.7865283525962077
0.18759686961222996,0.014668476925347331,1.179935673267852e-07,1.847974937684293,0.1693891681381086,0.7865283563857662
0.1883462579062868,0.014663728863384148,1.1425445386540266e-07,1.709289663065168,0.16444106197457478,0.7865283607307657
0.18909564620034366,0.014659113149637719,1.1062457318069087e-07,1.5796546522744381,0.15963750577801272,0.7865283657660946
0.18984503449440052,0.014654633923785885,1.071007345030797e-07,1.4587396931382766,0.15497427678272954,0.7865283716780727
0.19059442278845737,0.014650294324166676,1.0367984039570758e-07,1.346184448976184,0.1504472755834904,0.7865283787342557
0.19134381108251422,0.014646096571167132,1.0035888412148609e-07,1.241606895551641,0.14605252253176548,0.7865283873385053
0.19209319937657107,0.014642042062372546,9.71349471992215e-08,1.1446110470176258,0.14178615423725507,0.7865283981422655
0.19284258767062792,0.014638131497046911,9.400519735920638e-08,1.0547943074977648,0.13764442017161524,0.7865284122985245
0.19359197596468478,0.014634365128745781,9.096688783815468e-08,0.971756373496856,0.13362367937140046,0.7865284321536222
0.19434136425874163,0.014630744110859475,8.801736563455399e-08,0.8951286047438001,0.12972039723732337,0.7865284637581494
0.19509075255279848,0.01462748438025861,8.515545850386655e-08,0.8288256739384086,0.12593114242701878,0.7865285332517503
0.19584014084685533,0.014625847170949967,8.238858043738748e-08,0.7957528106322085,0.1222525838386204,0.7865311280777185
0.19658952914091218,0.014624868826377528,7.972339785942541e-08,0.770337956136254,0.11868148768266472,0.786553804173126
0.19733891743496904,0.01462469270556967,7.716265504703363e-08,0.7530786750807751,0.11521471463926143,0.7866033129809603
0.1980883057290259,0.014625693492326921,7.47218421366933e-08,0.7469969799402891,0.1118492170982192,0.786693338964311
0.19883769402308274,0.014628592566123252,7.246501911798781e-08,0.7554636933145206,0.1085820364802828,0.7868604729097449
0.1995870823171396,0.014634304625570312,7.054911179221533e-08,0.7598496292810732,0.10541030063767251,0.7872339690472288
0.20033647061119644,0.014646396564255664,6.908465466250118e-08,0.7479420599051346,0.10233122133185582,0.7881004592373794
0.2010858589052533,0.014667124568034175,6.803907418074892e-08,0.7321817628512478,0.09934209178093378,0.7895696595032481
0.20183524719931015,0.014696435372615968,6.733707630328532e-08,0.7171247108088861,0.09644028427585037,0.7916216473514677
0.202584635493367,0.01473384555332563,6.691697241578369e-08,0.7038306369655921,0.0936232478691727,0.7942194940681748
0.20333402378742385,0.014778826343186233,6.673277027096689e-08,0.6924389806530976,0.09088850613303477,0.7973264835898635
0.2040834120814807,0.01483087432993951,6.675057656705266e-08,0.682822388825463,0.0882336549826403,0.8009086327124728
0.20483280037553755,0.0148895254409697,6.694545180662227e-08,0.6747799947418223,0.0856563605632426,0.8049349500667557
0.2055821886695944,0.014954355617354089,6.729912248642236e-08,0.6681022330023301,0.0831543571987608,0.8093772392286862
0.20633157696365126,0.015024977951623164,6.779836394564674e-08,0.6625933768957044,0.08072544540025658,0.8142098123458937
0.2070809652577081,0.015101039008669812,6.843385791748061e-08,0.6580785446327484,0.07836748993254299,0.8194092057988493
0.20783035355176496,0.015182215179989413,6.919938167685144e-08,0.6544046701944172,0.07607841793723966,0.8249539219308502
0.20857974184582181,0.015268209339390187,7.009123097286177e-08,0.6514391429410766,0.07385621711063661,0.8308242014859125
0.20932913013987867,0.015358747867340553,7.110781071509592e-08,0.6490676492399347,0.07169893393477131,0.8370018254146658
0.21007851843393552,0.015453578038418056,7.224934876729319e-08,0.6471918665378513,0.06960467196016967,0.8434699429732729
0.21082790672799237,0.015552465740910019,7.351770256146222e-08,0.6457272800786777,0.06757159013874549,0.8502129227495779
0.21157729502204922,0.01565519349064394,7.491623801618801e-08,0.6446012228905574,0.06559790120539569,0.8572162234551758
0.21232668331610607,0.015761558701467396,7.644976704047781e-08,0.643751163281372,0.06368187010687039,0.8644662816772658
0.21307607161016293,0.01587137217790272,7.812453478236698e-08,0.6431232305146943,0.06182181247653945,0.8719504141605214
0.21382545990421978,0.015984456799449837,7.994825143240736e-08,0.642670955887946,0.060016093153715276,0.8796567325394735
0.21457484819827663,0.016100646369986232,8.193016628362366e-08,0.6423542024613313,0.058263124746231826,0.8875740687511191
0.21532423649233348,0.016219784609387687,8.408118421148238e-08,0.6421382570720329,0.05656136623501778,0.8956919096238394
0.21607362478639033,0.016341724267755677,8.641402701941197e-08,0.6419930605128714,0.054909321619437824,0.9040003393653455
0.21682301308044719,0.01646632634547271,8.894344440585375e-08,0.6418925546380025,0.0533055386022125,0.9124899888640199
0.21757240137450404,0.016593459404743112,9.168648184434358e-08,0.6418141280972216,0.05174860731276208,0.9211519908796655
0.2183217896685609,0.016722998960356488,9.46628156390785e-08,0.6417381451331491,0.05023715906785352,0.9299779403359063
0.21907117796261774,0.01685482693918012,9.789516907485464e-08,0.6416475443014407,0.04876986516846247,0.9389598590413063
0.2198205662566746,0.01698883119938922,1.0140982824312629e-07,0.641527496071955,0.047345435731795206,0.9480901642631941
0.22056995455073145,0.017124905101719816,1.0523728222875878e-07,0.6413651100550507,0.04596261855744591,0.9573616406600934
0.2213193428447883,0.017262947126112555,1.0941302049073106e-07,0.6411491841034197,0.04462019802669573,0.966767415148003
0.22206873113884515,0.017402860528036718,1.1397853133226676e-07,0.640869988802805,0.04331699403399046,0.9763009343346006
0.222818119432902,0.017544553029567866,1.189825605986114e-07,0.6405190819200531,0.04205186094966202,0.9859559442054608
0.22356750772695885,0.017687936540787177,1.2448271096989108e-07,0.6400891452150881,0.04082368661298914,0.9957264717889673
0.2243168960210157,0.017832926902521227,1.3054748922732227e-07,0.639573764893831,0.03963139135472069,1.0056068084936771
0.22506628431507256,0.017979443640089788,1.3725895548274893e-07,0.6389672887875972,0.038473927048213855,1.015591493897052
0.2258156726091294,0.01812740977604074,1.4471620454729036e-07,0.6382650172843611,0.0373502761883693,1.0256753022532654
