Time [s],Lmtc [m],STIM [ ],Fsee [N],Gamma [ ],Lcerel [ ]
0.0,0.023587452118588526,0.9999996235649122,1.3710683741801035,0.08604761849793276,1.395359130655601
0.004251707639583106,0.023513760581937614,0.9999993300092652,2.580180367384542,0.15099235049923385,1.387630240650225
0.008503415279166211,0.02338078043581815,0.9999988678008387,3.3108917492896737,0.21132213854721796,1.3772433900705598
0.012755122918749317,0.02323513823954245,0.9999983179505566,3.7863167600347496,0.26736490505311283,1.3665352413250051
0.017006830558332423,0.0230887002681622,0.9999977396434935,4.158031845034603,0.31942527626837375,1.3559780359119982
0.021258538197915528,0.022944599992379196,0.9999971718307731,4.479492151379128,0.3677862361411067,1.3456791519791946
0.025510245837498634,0.022803620394961917,0.9999966380172222,4.770875686426063,0.4127106627638321,1.3356526213954538
0.02976195347708174,0.02266583011415162,0.9999961509706945,5.041084661293838,0.4544427559826491,1.3258853692708235
0.034013661116664845,0.022531068328491315,0.9999957164071516,5.294690422552664,0.4932093638962182,1.3163569170963232
0.03826536875624795,0.022399107232487028,0.9999953356052709,5.534369602180797,0.5292212153565946,1.307045894838986
0.04251707639583105,0.02226971046174181,0.999995007168313,5.761866501439068,0.5626740650752851,1.2979322247909466
0.04676878403541415,0.022142654186308036,0.9999947281755288,5.978416689280468,0.593749757484135,1.2889977554912109
0.051020491674997254,0.022017733858189337,0.9999944949186138,6.18495210406273,0.6226172150808935,1.280226320988518
0.055272199314580356,0.021894765277693122,0.9999943033637335,6.382209071204856,0.6494333565960249,1.271603594176529
0.05952390695416346,0.02177358345786668,0.9999941494348603,6.570789580549176,0.6743439499481209,1.26311687933364
0.06377561459374656,0.021654040737789534,0.9999940291819188,6.751198405141393,0.6974844046090835,1.2547549010823729
0.06802732223332966,0.021536004755059523,0.9999939388752783,6.923866916459836,0.7189805076763919,1.2465076109748507
0.07227902987291276,0.021419356525622102,0.9999938750535797,7.0891691454548535,0.7389491076473501,1.23836601792542
0.07653073751249587,0.021303988719762648,0.9999938345423689,7.247433087570637,0.7574987496082579,1.2303220425845443
0.08078244515207897,0.021189804153194002,0.999993814454822,7.398948954565997,0.7747302652888467,1.222368393437759
0.08503415279166207,0.021076714482733468,0.999993812181835,7.543975385116038,0.7907373211879472,1.2144984617495904
0.08928586043124517,0.020964639085106013,0.9999938253761412,7.682744240913604,0.8056069277490666,1.2067062324970868
0.09353756807082828,0.02085350409481403,0.999993851933431,7.815464391181483,0.8194199123532052,1.198986208723931
0.09778927571041138,0.020743241578037565,0.999993889972343,7.942324753531668,0.8322513586998221,1.1913333471051468
0.10204098334999448,0.020633788821944762,0.9999939378144809,8.063496774859042,0.8441710149643081,1.1837430028640965
0.10629269098957758,0.020525087721567692,0.999993993965146,8.179136481685038,0.8552436729506726,1.1762108824973232
0.11054439862916068,0.020417084249075877,0.99999405709517,8.289386193379979,0.8655295203005661,1.1687330030307244
0.11479610626874379,0.020309727992678838,0.9999941260240433,8.39437596719165,0.8750844676733083,1.161305656754006
0.11904781390832689,0.020202971754458062,0.9999941997044104,8.494224826920062,0.8839604526755498,1.1539253805644059
0.12329952154790999,0.020096771198177734,0.9999942772079238,8.589041814897106,0.8922057221928242,1.146588929201291
0.1275512291874931,0.019991084539585226,0.9999943577124081,8.67892689807168,0.8998650946578329,1.1392932517761905
0.1318029368270762,0.019885872272924834,0.9999944404902542,8.763971752443029,0.9069802036812293,1.1320354711030656
0.1360546444666593,0.01978109692839246,0.9999945248979546,8.84426044514938,0.9135897243693638,1.124812865415517
0.1403063521062424,0.01967672285608889,0.9999946103666817,8.919870029749463,0.9197295835593174,1.117622852124581
0.1445580597458255,0.01957271603271555,0.999994696393817,8.990871067316442,0.9254331551141248,1.1104629733256774
0.1488097673854086,0.019469043887824458,0.9999947825353346,9.057328083676959,0.9307314413398678,1.103330882808392
0.1530614750249917,0.019365675146905223,0.9999948683989547,9.119299971315332,0.9356532415108659,1.0962243343599944
0.1573131826645748,0.019262579688982307,0.999994953637984,9.176840343011513,0.9402253084191091,1.0891411711843162
0.1615648903041579,0.019159728416721117,0.9999950379457668,9.229997843107256,0.944472493798968,1.0820793162831164
0.165816597943741,0.01905709313731167,0.999995121050679,9.278816421336856,0.9484178834177442,1.075036763668192
0.17006830558332411,0.0189546464526242,0.999995202711597,9.323335573369482,0.9520829225664318,1.0680115702901078
0.17432001322290722,0.018852360411504718,0.9999952827137875,9.363507044901327,0.9554875326328788,1.0610018485840678
0.17857172086249032,0.01875020327012965,0.9999953608651573,9.398983038917153,0.9586502193910579,1.0540057595456616
0.18282342850207342,0.01864814880536117,0.9999954369928182,9.429746637171128,0.9615881735951141,1.0470215062593777
0.18707513614165652,0.018546171899468982,0.9999955109399147,9.45582349150358,0.9643173644250382,1.0400473278112101
0.19132684378123962,0.018444247759823784,0.9999955825626704,9.477235103413458,0.9668526262919311,1.0330814935236483
0.19557855142082273,0.018342351842125508,0.9999956517276106,9.493998932005479,0.969207739474746,1.026122297457053
0.19983025906040583,0.01824045977601567,0.9999957183089158,9.506128481372713,0.971395505026844,1.0191680531260312
0.20408196669998893,0.01813854729241822,0.999995782185863,9.513633368463482,0.9734278143595642,1.0122170883830781
0.20833367433957203,0.01803659015304678,0.999995843240318,9.516519444076097,0.9753157138810521,1.0052677404245525
0.21258538197915514,0.017934565400221907,0.9999959013584652,9.514877937481101,0.9770694650417259,0.9983183510139598
0.21683708961873824,0.017832447832147956,0.9999959564421488,9.50844245418301,0.9786986001130813,0.9913674730084185
0.22108879725832134,0.017730219628488586,0.999996008401241,9.497027397093259,0.9802119740036997,0.9844140845167717
0.22534050489790444,0.01762786615382215,0.9999960571411501,9.480626195643929,0.9816178123927124,0.9774572041197126
0.22959221253748754,0.017525372574683104,0.9999961025597693,9.459229766559913,0.982923756442049,0.9704958434799505
0.23384392017707065,0.01742272383243652,0.9999961445449873,9.432826492936124,0.9841369043312462,0.9635290056027888
0.23809562781665375,0.017319904614984095,0.999996182971952,9.401402196206877,0.9852638498406535,0.9565556830519439
0.24234733545623685,0.01721689932714328,0.9999962177000065,9.364940100825567,0.9863107181927506,0.9495748561114397
0.24659904309581995,0.01711369205952616,0.9999962485691984,9.323420791418618,0.9872831993463903,0.9425854908838404
0.2508507507354031,0.017010266555727564,0.999996275396238,9.276822162120906,0.988186578924941,0.9355865373144132
0.2551024583749862,0.016906606177612214,0.9999962979697413,9.225119357738892,0.989025766946462,0.9285769271300081
0.2593541660145693,0.016802693868468173,0.9999963160445346,9.16828470632251,0.9898053245121785,0.9215555716805252
0.2636058736541524,0.016698512113767983,0.9999963293346876,9.106287642655472,0.9905294885987214,0.9145213596697732
0.2678575812937355,0.016594042899248977,0.9999963375047577,9.039094622095945,0.9912021950900288,0.9074731547612861
0.2721092889333186,0.016489267665989762,0.9999963401584202,8.966669024113267,0.991827100177023,0.9004097930432329
0.2763609965729017,0.01638416726212016,0.9999963368231983,8.888971044771543,0.992407600247811,0.8933300803349346
0.2806127042124848,0.01627872189075525,0.9999963269293737,8.805957577304598,0.9929468503891511,0.8862327893155755
0.2848644118520679,0.01617291105369061,0.999996309780427,8.717582079808562,0.9934477816215677,0.879116656453543
0.289116119491651,0.016066713490332778,0.9999962845116221,8.623794428945205,0.993913116995131,0.8719803787122816
0.2933678271312341,0.015960107111265057,0.9999962500327346,8.524540758397986,0.994345386677619,0.864822610005629
0.2976195347708172,0.015853068925762576,0.9999962049504613,8.41976328064982,0.994746942166696,0.8576419573722406
0.3018712424104003,0.01574557496246761,0.9999961474655107,8.309400090449971,0.9951199697463525,0.8504369768347563
0.3061229500499834,0.01563760018231565,0.9999960752381776,8.193384948101823,0.9954665032795713,0.8432061689048433
0.3103746576895665,0.015529118382658174,0.9999959852133341,8.071647040424438,0.9957884363816731,0.8359479736899482
0.3146263653291496,0.015420102091356254,0.9999958733896863,7.9441107169129435,0.9960875339555539,0.8286607655514353
0.3188780729687327,0.015310522449412525,0.9999957345066623,7.810695198237976,0.9963654430007369,0.8213428472565987
0.3231297806083158,0.015200349080459695,0.9999955616018807,7.671314253776784,0.996623702547052,0.8139924435586053
0.3273814882478989,0.01508954994512102,0.999995345356255,7.525875844350334,0.9968637525255392,0.8066076941284922
0.331633195887482,0.014978091177887964,0.9999950730788186,7.374281725742752,0.9970869413844153,0.799186645751609
0.3358849035270651,0.014865936903704004,0.9999947270592372,7.216427007885294,0.9972945322890079,0.7917272436869282
0.34013661116664823,0.014753049030877445,0.999994281762843,7.052199663776134,0.9974877078031519,0.7842273220709834
0.34438831880623133,0.01463938701623694,0.9999936987882642,6.881479981246442,0.9976675730159379,0.7766845932282034
0.34864002644581443,0.014524907597548676,0.9999929171884038,6.704139949530147,0.9978351571177266,0.7690966357253547
0.35289173408539753,0.014409564487072682,0.999991833291938,6.520042571188816,0.997991413381529,0.7614608809787144
0.35714344172498064,0.014293308018666335,0.9999902538419579,6.3290410881983235,0.9981372172295243,0.7537745981873194
0.36139514936456374,0.014176084738929489,0.99998776978401,6.1309781087812825,0.998273361139596,0.746034877322756
0.36564685700414684,0.014057836930364222,0.9999833328397429,5.9256846186250804,0.9984005419836984,0.7382386098538104
0.36989856464372994,0.013938502051182845,0.9999731933545875,5.712978856688445,0.9985193231221008,0.7303824668220457
0.37415027228331305,0.013818012072814669,0.9999263984945955,5.49266507153795,0.998629971216834,0.7224628738192364
0.37840197992289615,0.013696500248776543,2.5037095618669376e-05,5.27496921524226,0.9987307801880135,0.7144759825179923
0.38265368756247925,0.013572612226941502,5.26337353272196e-06,4.977311760029591,0.8441070254935925,0.7064443168211988
0.38690539520206235,0.013447515088691058,2.0252003645312063e-06,4.632931276914459,0.7134199384164853,0.6984100405188152
0.39115710284164545,0.013321217568082121,9.368348593623556e-07,4.2239042015304245,0.6029660680474196,0.6904099698269807
0.39540881048122856,0.013193932574343021,4.82817003321434e-07,3.734242290457242,0.5096131255488918,0.6825017708291362
0.39966051812081166,0.013066455716085654,2.721325120715095e-07,3.163849926786215,0.43071354622515523,0.674772727743409
0.40391222576039476,0.01294083364184513,1.6712147974772405e-07,2.546375721093148,0.3640296158652472,0.6673522355776343
0.40816393339997786,0.01282116815455343,1.1127693645542691e-07,1.9529598333384037,0.307670054585436,0.6604325503508826
0.41241564103956097,0.012714476411680267,7.93982276427849e-08,1.4672280051311501,0.2600363924608968,0.6543217479640722
0.41666734867914407,0.012631260762882688,6.018131078953349e-08,1.1112955270280163,0.2197776398695981,0.6496295036800911
0.42091905631872717,0.012582955493950788,4.7952013473202386e-08,0.8309603325092787,0.18575197333590326,0.6472255266206441
0.42517076395831027,0.01256192151367147,2.8797504509562747e-07,0.547492356796832,0.15699435210987087,0.6468601705029187
0.4259190563187272,0.012563923939040177,2.793859788270718e-07,0.5804292094710326,0.1524149512690515,0.646860170502918
0.4266673486791441,0.012564581753548716,2.7121557823269114e-07,0.573021325452791,0.14796913642528028,0.6469353275663661
0.427415641039561,0.012566707323745171,2.635208702652046e-07,0.5757355920775601,0.14365301073773246,0.6470690055934264
0.4281639333999779,0.01257096148093862,2.5662542774740273e-07,0.5810560264372692,0.13946279104245465,0.6473370867313132
0.4289122257603948,0.012579330984569304,2.508438562593037e-07,0.5753334252399853,0.13539480454405892,0.6479307165392393
0.4296605181208117,0.012594083357269538,2.461772675948641e-07,0.5650362236499956,0.13144548559588648,0.6489782242140405
0.4304088104812286,0.012615537412512538,2.424465184177997e-07,0.5547899969895498,0.12761137256521465,0.6504824993725344
0.4311571028416455,0.012643420259608023,2.3948282380707644e-07,0.5458440300415379,0.1238891047937956,0.6524196923260475
0.4319053952020624,0.012677361244375431,2.3715470220228744e-07,0.5384319539111718,0.12027541965262002,0.654763434342838
0.4326536875624793,0.012716991881610826,2.3536233235239228e-07,0.5324834009666538,0.11676714968338281,0.6574887918470654
0.4334019799228962,0.0127619681685834,2.340298816864865e-07,0.5278388128784007,0.11336121982317059,0.660572909495886
0.4341502722833131,0.01281197455637156,2.3309940650910087e-07,0.5243218839515502,0.11005464470988466,0.6639949739404681
0.43489856464373,0.012866722858729487,2.3252636475808106e-07,0.521765179134959,0.10684452606608956,0.6677360237583672
0.4356468570041469,0.01292594976142259,2.3227635858311282e-07,0.5200185830669415,0.10372805015904682,0.6717787364695678
0.4363951493645638,0.012989414089417024,2.3232276266619265e-07,0.5189510508733566,0.10070248533474764,0.676107228863999
0.4371434417249807,0.013056894218220405,2.3264498424157012e-07,0.5184497272363687,0.09776517962381104,0.6807068799059168
0.4378917340853976,0.01312818574936803,2.3322717554155647e-07,0.5184181157836842,0.0949135584171702,0.68556417700999
0.4386400264458145,0.013203099471639192,2.3405727318293667e-07,0.518774016215591,0.09214512220952388,0.6906665837957998
0.4393883188062314,0.013281459592819189,2.3512627630648927e-07,0.5194475322265235,0.08945744440858593,0.6960024267159916
0.4401366111666483,0.013363102214283596,2.3642770097922332e-07,0.5203792683080822,0.08684816920822026,0.7015607979446641
0.4408849035270652,0.01344787401802072,2.3795716615331485e-07,0.5215187496707376,0.0843150095236033,0.7073314721448498
0.4416331958874821,0.01353563113705162,2.397120788922315e-07,0.5228230620881072,0.0818557449866075,0.7133048350312812
0.442381488247899,0.013626238183039438,2.416913953337255e-07,0.5242556928824104,0.07946821999965296,0.7194718219394166
0.4431297806083159,0.013719567408101999,2.43895440106005e-07,0.5257855490482528,0.07715034184632313,0.7258238648794598
0.44387807296873283,0.013815497980977408,2.463257714169329e-07,0.527386128127335,0.07490007885709096,0.7323528467879951
0.44462636532914973,0.013913915360550606,2.489850823182283e-07,0.5290348191929614,0.07271545862854854,0.7390510618902171
0.44537465768956663,0.014014710752268816,2.5187713106457776e-07,0.5307123138498936,0.07059456629458152,0.7459111812556374
0.44612295004998354,0.014117780635155109,2.5500669528865224e-07,0.532402109858238,0.06853554284797272,0.7529262227734184
0.44687124241040044,0.014223026348997234,2.5837954607035684e-07,0.5340900925521049,0.06653658351096543,0.7600895248940154
0.44761953477081734,0.01433035373287819,2.620024390148194e-07,0.5357641815225043,0.06459593615335821,0.7673947235850539
0.44836782713123424,0.014439672807562209,2.6588312025634556e-07,0.537414032034934,0.06271189975674558,0.7748357320344371
0.44911611949165114,0.014550897495389114,2.7003034593846605e-07,0.5390307823625394,0.06088282292355865,0.782406722705157
0.44986441185206805,0.014663945372292887,2.7445391422991797e-07,0.5406068396619179,0.0591071024295992,0.7901021114064216
0.45061270421248495,0.014778737447373094,2.7916470935773865e-07,0.5421356982326775,0.05738318181879895,0.7979165430963276
0.45136099657290185,0.014895197966134728,2.841747574980011e-07,0.5436117850168565,0.05570955003897254,0.8058448791739967
0.45210928893331875,0.015013254234092114,2.8949729468256225e-07,0.5450303280406597,0.05408474011736879,0.8138821860551048
0.45285758129373566,0.015132836457923488,2.951468471729272e-07,0.5463872442056646,0.05250732787485955,0.822023724855192
0.45360587365415256,0.01525387760177816,3.011393250335466e-07,0.5476790434232638,0.05097593067763947,0.830264942030915
0.45435416601456946,0.015376313256689781,3.074921299183646e-07,0.5489027465741885,0.04948920622534281,0.8386014608512168
0.45510245837498636,0.015500081521348222,3.142242783770771e-07,0.5500558151814333,0.048045851374515315,0.8470290735889672
0.45585075073540327,0.015625122892735363,3.2135654230183216e-07,0.5511360910235185,0.046644600996410455,0.8555437343393375
0.45659904309582017,0.01575138016534606,3.2891160848180384e-07,0.5521417441973743,0.04528422686810911,0.8641415523846121
0.45734733545623707,0.01587879833789852,3.369142596237916e-07,0.5530712283758833,0.043963536595991,0.8728187860365431
0.45809562781665397,0.016007324526594688,3.4539157964478955e-07,0.5539232422020343,0.042681372570615224,0.8815718368971018
0.4588439201770709,0.016136907884124536,3.5437318656240397e-07,0.55469669592646,0.04143661095209381,0.8903972444868254
0.4595922125374878,0.016267499523721904,3.6389149691899833e-07,0.5553906825331315,0.040228160685070104,0.8992916811970466
0.4603405048979047,0.01639905244767691,3.739820263970971e-07,0.5560044527137432,0.03905496254243886,0.9082519475284269
0.4610887972583216,0.01653152147979325,3.846837321433595e-07,0.5565373931484967,0.03791598819697103,0.9172749675834149
0.4618370896187385,0.01666486320135011,3.960394033490299e-07,0.5569890076326979,0.03681023932002999,0.9263577847847558
0.4625853819791554,0.016799035890189544,4.0809610787696304e-07,0.5573589006573476,0.03573674670659097,0.935497557796016
0.4633336743395723,0.016933999462602944,4.2090570423034734e-07,0.5576467631098717,0.03469456942579756,0.9446915566234177
0.4640819666999892,0.017069715417735148,4.345254299908935e-07,0.5578523598100017,0.033682793996312126,0.953937158881113
0.4648302590604061,0.017206146784263663,4.4901858009694876e-07,0.5579755186371663,0.0327005335857397,0.963231846204488
0.465578551420823,0.017343258069144038,4.644552910902797e-07,0.5580161210406764,0.03174692723342515,0.9725732007982086
0.4663268437812399,0.017481015208240816,4.809134508701196e-07,0.5579740937535779,0.030821139095945128,0.9819589021075243
0.4670751361416568,0.01761938551868876,4.984797577307449e-07,0.5578494015561616,0.029922357714636447,0.9913867236029459
0.4678234285020737,0.01775833765194332,5.172509551383988e-07,0.5576420261288326,0.029049795304522338,1.0008545296697289
0.4685717208624906,0.01789784153871354,5.37335264155626e-07,0.557351866731804,0.028202687064017552,1.010360272270026
0.4693200132229075,0.018037868346149524,5.588540893376502e-07,0.5569789074637606,0.027380290504811913,1.01990198732982
0.4700683055833244,0.018178390448509253,5.819440512058146e-07,0.5565232150448765,0.026581884801351676,1.0294777927495593
0.4708165979437413,0.018319381385240394,6.067593878781796e-07,0.5559848694972067,0.025806770159356528,1.0390858858369831
0.4715648903041582,0.018460815821484865,6.334748222022397e-07,0.5553639610161678,0.025054267202827815,1.0487245406294297
0.4723131826645751,0.018602669509681233,6.622890045099432e-07,0.55466058725912,0.024323716379021844,1.0583921052892724
0.473061475024992,0.018744922272197397,6.934286698595179e-07,0.5539240852445606,0.023614477380881398,1.068086999569412
0.4738097673854089,0.018887595119138217,7.271536882235836e-07,0.553858388078996,0.02292592858643679,1.077807712346143
0.4745580597458258,0.019030681279557576,7.637632388367274e-07,0.5546987618410966,0.0222574665147075,1.0875527992170642
0.4753063521062427,0.019174160803558854,8.036034108717528e-07,0.5564522593003292,0.0216085052976559,1.0973208801619925
0.4760546444666596,0.019318014482619602,8.470766290267344e-07,0.5591254155660909,0.02097847616776642,1.1071106372650947
0.47680293682707653,0.0194622238188593,8.946534350413395e-07,0.5627242743074945,0.020366826960847507,1.1169208124966457
