Time [s],Lmtc [m],STIM [ ],Fsee [N],Gamma [ ],Lcerel [ ]
0.0,0.020210983702085,0.9999998766805318,1.635345865663644,0.0964830908610121,1.1646460206230802
0.0010826219009851229,0.02022062443478795,0.999999873215603,2.095892706317772,0.11328306409295007,1.1642521232717467
0.0021652438019702457,0.020217692648240863,0.9999998645659691,2.579455176820859,0.12977065889071476,1.1630673679377805
0.0032478657029553683,0.020204567703090783,0.9999998518554536,3.039816532352031,0.14595168351632481,1.161318212036524
0.004330487603940491,0.020184101808964478,0.9999998356046909,3.465308346652666,0.16183183825398625,1.1591896619132234
0.0054131095049256145,0.020158144905053157,0.9999998161038406,3.84864003469991,0.17741671740661336,1.1567975157722072
0.0064957314059107376,0.02012797276973992,0.9999997935747406,4.186869987004884,0.19271181126215864,1.1542169145676864
0.007578353306895861,0.020094531091298145,0.9999997682053657,4.481229107026013,0.20772250802639325,1.1514986655521249
0.008660975207880983,0.020058539808877264,0.9999997401607573,4.7355380211181775,0.22245409572039268,1.1486780550389382
0.009743597108866105,0.020020551337001813,0.9999997095876115,4.954732224457399,0.23691176404294154,1.145780121425814
0.010826219009851227,0.0199809908321562,0.9999996766159246,5.143899309318812,0.25110060619839564,1.1428229806106502
0.01190884091083635,0.019940186391595782,0.999999641359242,5.307764976813218,0.2650256206905868,1.1398199781653435
0.012991462811821472,0.019898392120434476,0.9999996039143465,5.4504758323850515,0.2786917130833774,1.1367811093192868
0.014074084712806594,0.019855805728148223,0.9999995643607836,5.575551346052323,0.2921036977284714,1.1337139730591226
0.015156706613791716,0.019812581882494327,0.9999995227603845,5.6859203848935564,0.30526629946109163,1.130624424792045
0.01623932851477684,0.019768842302589445,0.9999994791568219,5.783992750990136,0.31818415526411803,1.1275170306734732
0.017321950415761962,0.01972468337425471,0.9999994335751831,5.871739303592699,0.3308618159012747,1.124395389210989
0.018404572316747084,0.01968018189926996,0.9999993860215165,5.950767973415314,0.3433037475199418,1.1212623625567337
0.019487194217732207,0.019635399446669876,0.9999993364822996,6.022390524435762,0.35551433322415565,1.1181202453460986
0.02056981611871733,0.019590385659032598,0.9999992849237758,6.0876787826225005,0.3674978746183515,1.1149708896746642
0.02165243801970245,0.01954518077729783,0.9999992312911051,6.147510857090367,0.3792585933223895,1.111815798815962
0.022735059920687573,0.019499817579841486,0.9999991755072702,6.202608596104,0.3908006324583934,1.1086561983516692
0.023817681821672695,0.01945432288088223,0.999999117471679,6.253567694030283,0.402128058109925,1.1054930907669585
0.024900303722657818,0.01940871869580345,0.9999990570583931,6.300881790256617,0.4132448607539977,1.102327297793495
0.02598292562364294,0.0193630231533535,0.9999989941139059,6.3449617294112794,0.424154956666433,1.0991594935691944
0.027065547524628062,0.019317251214370355,0.9999989284543751,6.386150958484562,0.4348621893010428,1.0959902308410912
0.028148169425613184,0.019271415241721376,0.9999988598621955,6.424737854216276,0.44537033064311665,1.0928199618448373
0.029230791326598306,0.019225525455114238,0.9999987880817685,6.460965616104759,0.45568308253767853,1.0896490550723352
0.03031341322758343,0.019179590296264842,0.99999871281429,6.495040229246863,0.4658040779929659,1.0864778088351732
0.031396035128568554,0.01913361672383228,0.999998633711326,6.527136895117174,0.4757368824595782,1.0833064623104005
0.03247865702955368,0.019087610452990653,0.9999985503668805,6.557405243868084,0.48548499508571724,1.0801352045926167
0.033561278930538806,0.019041576151097275,0.9999984623075715,6.585973575017194,0.4950518499489439,1.0769641821556923
0.03464390083152393,0.018995517598340405,0.9999983689804121,6.612952321011186,0.5044408172648476,1.0737935050370397
0.03572652273250906,0.018949437820293357,0.9999982697375254,6.638436887144605,0.5136552045730118,1.070623251989085
0.03680914463349418,0.018903339197807054,0.9999981638169038,6.662509989227959,0.5226982579006499,1.0674534747905706
0.03789176653447931,0.01885722351021841,0.9999980503179978,6.685240849315349,0.5315731629042401,1.0642842018703873
0.038974388435464434,0.018811090863636633,0.9999979281704837,6.706621637822777,0.5402830459894817,1.0611154413657817
0.04005701033644956,0.0187649416567841,0.9999977960939093,6.7266763364520035,0.5488309754098485,1.0579471837127237
0.041139632237434685,0.018718776478137723,0.9999976525449924,6.745453267009952,0.5572199623439603,1.0547794038473828
0.04222225413841981,0.018672595602629065,0.9999974956479623,6.7629949746203115,0.5654529619519462,1.0516120630828067
0.04330487603940494,0.018626399030542362,0.9999973231012538,6.779339012626429,0.5735328744108684,1.048445110713083
0.04438749794039006,0.01858018652061512,0.999997132050665,6.794518605352111,0.58146254592916,1.0452784853878694
0.04547011984137519,0.01853395761828125,0.9999969189140511,6.808563209563532,0.5892447697398402,1.042112116292598
0.046552741742360314,0.018487711679827976,0.9999966791345223,6.821498991626119,0.5968822870720026,1.038945924163594
0.04763536364334544,0.01844144789310128,0.9999964068256806,6.833349234260128,0.6043777880996511,1.0357798221623788
0.048717985544330565,0.018395165295285024,0.9999960942495008,6.8441346843093,0.6117339128662985,1.0326137166294196
0.04980060744531569,0.01834886278818945,0.9999957310269324,6.853873850924584,0.6189532521826595,1.0294475077342895
0.050883229346300816,0.018302539151411973,0.9999953029067414,6.862583261932385,0.6260383484929808,1.026281090036483
0.05196585124728594,0.018256193053673816,0.999994789774552,6.870277684827378,0.6329916967023673,1.0231143529689177
0.05304847314827107,0.018209823062586714,0.9999941622923575,6.8769703177427575,0.639815744951704,1.0199471812542733
0.054131095049256193,0.018163427653063863,0.9999933759271556,6.88267295485758,0.6465128953156881,1.0167794552628024
0.05521371695024132,0.018117005214555348,0.9999923596501886,6.887396129959659,0.6530855043768512,1.0136110513189458
0.056296338851226445,0.0180705540572604,0.9999909927880037,6.891149241257893,0.6595358835787795,1.0104418419630148
0.05737896075221157,0.01802407241744493,0.999989052464329,6.893940659986409,0.6658662991423474,1.007271696173316
0.058461582653196696,0.017977558461971275,0.9999860763346076,6.8957778247961885,0.6720789710062471,1.0041004795533408
0.05954420455418182,0.017931010392170627,0.9999809228447983,6.896673078409498,0.6781760692349352,1.0009280544881183
0.06062682645516695,0.017884426521851637,0.9999698002355799,6.896644859140301,0.6841597023169117,0.9977542840412142
0.06170944835615207,0.017837803414660233,0.999927938576474,6.895574942109793,0.6900318690322904,0.9945790741264591
0.06279207025713719,0.017791188703222095,7.258970078029837e-05,6.896263596275766,0.6957940704289164,0.9914023533766194
0.06387469215812232,0.017744129672421748,1.4571700464938844e-05,6.871202806145103,0.6666243116621318,0.9882258848067889
0.06495731405910744,0.017697027941829542,7.302631886883656e-06,6.841850607648096,0.6386751486377296,0.9850516633019127
0.06603993596009257,0.017649879620176,4.5154898825613335e-06,6.807746250763994,0.6118975320518037,0.9818800062021998
0.0671225578610777,0.017602680690456004,3.0726275188552785e-06,6.768376397323128,0.5862425292756837,0.9787112967092786
0.06820517976206282,0.017555427103273787,2.208634702980934e-06,6.723174964973658,0.561663127771886,0.9755459938559363
0.06928780166304795,0.017508114886809305,1.6449338655991761e-06,6.671523528426312,0.538114254050662,0.9723846437677399
0.07037042356403307,0.01746074030479227,1.255922004306063e-06,6.612753960848128,0.5155527127813834,0.9692278924853801
0.0714530454650182,0.017413300077770113,9.767154097511475e-07,6.546154116194735,0.4939371144590196,0.9660765005433556
0.07253566736600332,0.017365791684986177,7.704707410499485e-07,6.470977419723349,0.4732278022353748,0.9629313595131619
0.07361828926698845,0.01731821376658317,6.147585292940825e-07,6.386457287144664,0.45338678044799763,0.9597935107342888
0.07470091116797357,0.017270566647705418,4.951773952210284e-07,6.291827272793976,0.43437764557439934,0.9566641664704225
0.0757835330689587,0.01722285300674864,4.020852755026781e-07,6.1863477079529465,0.4161655198134813,0.9535447337396662
0.07686615496994383,0.017175078708731435,3.2880605193922027e-07,6.069339283224497,0.39871698731470573,0.9504368410744581
0.07794877687092895,0.017127253820661686,2.705889390859508e-07,5.940223507804661,0.3820000330058551,0.9473423684668202
0.07903139877191408,0.01707939381796504,2.2397606414130179e-07,5.79856921379976,0.3659839839419888,0.9442634807443612
0.0801140206728992,0.01703152097885742,1.8640288015424083e-07,5.644143270516331,0.3506394530869998,0.9412026645981364
0.08119664257388433,0.01698366594681149,1.559371868949085e-07,5.476962494055809,0.3359382854355452,0.9381627694406057
0.08227926447486945,0.01693586942069853,1.3110374450418104e-07,5.297342520352593,0.32185350638302884,0.9351470522069705
0.08336188637585458,0.01688818390975911,1.1076344820897373e-07,5.105938378007931,0.30835927225297394,0.9321592261271925
0.0844445082768397,0.016840675469826365,9.402826392713478e-08,4.903770942394514,0.2954308228936137,0.9292035134036282
0.08552713017782483,0.01679342532350834,8.02001847048602e-08,4.692233686231293,0.2830444362584447,0.9262847016790282
0.08660975207880996,0.016746531267431843,6.872667674575134e-08,4.47307541353128,0.2711773848885647,0.9234082042962087
0.08769237397979508,0.01670010879299037,5.91676660717561e-08,4.2483570531568455,0.2598078942177492,0.9205801249129498
0.08877499588078021,0.01665429190361912,5.1170743735148395e-08,4.020383890843206,0.24891510262432656,0.9178073285981362
0.08985761778176533,0.01660923371178223,4.44523199721708e-08,3.7916182475126754,0.23847902315695618,0.915097525049317
0.09094023968275046,0.016565107047645616,3.878315943243579e-08,3.564580552376982,0.22848050686437746,0.9124593763164648
0.09202286158373559,0.01652210549411685,3.3977214652586405e-08,3.3417476760994345,0.21890120766206014,0.9099026522465934
0.09310548348472071,0.01648044541561176,2.988302023097017e-08,3.1254550818297444,0.20972354867145526,0.9074384699317254
0.09418810538570584,0.016440369512351165,2.637714904019752e-08,2.917803752346848,0.2009306899702136,0.905079659635154
0.09527072728669096,0.016402151914649745,2.335936073283954e-08,2.720566390188506,0.19250649769429434,0.9028412766543454
0.09635334918767609,0.01636610343257955,2.0749065604450613e-08,2.5350858135714907,0.18443551443535877,0.9007411889831164
0.09743597108866121,0.01633257303235251,1.848257451826018e-08,2.362169417423925,0.17670293087918942,0.8988004779800691
0.09851859298964634,0.016301938433536695,1.6510395570710157e-08,2.2020104392968776,0.1692945586331393,0.8970431118251044
0.09960121489063146,0.016274577131862117,1.479383649684832e-08,2.0541965934610626,0.16219680419275584,0.8954941563680809
0.10068383679161659,0.016250813219304622,1.3300727571068139e-08,1.9178619488571813,0.15539664399978925,0.8941760342653644
0.10176645869260172,0.016230848056983625,1.2001155562529219e-08,1.7919643773717995,0.14888160054578803,0.8931033396497801
0.10284908059358684,0.016214699498438408,1.0864839582363565e-08,1.6755663494059092,0.1426397194774428,0.8922781075520418
0.10393170249457197,0.016202180276009025,9.861174930443624e-09,1.5679754179951104,0.13665954766174632,0.891687968286097
0.1050143243955571,0.016192929714022638,8.961325888649725e-09,1.4687076399583778,0.13093011217083844,0.8913083171266517
0.10609694629654222,0.016186483774468102,8.140635059832804e-09,1.3773531528045921,0.125440900148061,0.8911073676606188
0.10717956819752734,0.016180791185189353,7.375213160824521e-09,1.2548671687934558,0.12018183951828894,0.8910516918113579
0.10826219009851247,0.016174908867740395,6.308181439768089e-08,1.1146850264158181,0.11514328050689486,0.8910516629540777
0.10851290153086068,0.016178151057975612,6.23674579641375e-08,1.1909289105688297,0.11400691707854713,0.8910516629540772
0.1087636129632089,0.016178046541150303,6.166833916126186e-08,1.1803916347546213,0.11288176953609558,0.8910746407150134
0.10901432439555711,0.016178079472228237,6.097901831168482e-08,1.1713103038943276,0.11176772717903609,0.8911029321424203
0.10926503582790532,0.016178270265733114,6.029985511604119e-08,1.1638603666891227,0.11066468039942318,0.8911373750851055
0.10951574726025354,0.01617864624766118,5.963143278700848e-08,1.1582721976694157,0.1095725206711441,0.8911791212393634
0.10976645869260175,0.016179244697486488,5.897468521750618e-08,1.1548463996286142,0.10849114053924319,0.8912298019464565
0.11001717012494996,0.016180117299422956,5.8331126388092313e-08,1.15396137355753,0.10742043360935294,0.8912918151255402
0.11026788155729818,0.01618133591204621,5.770327699304913e-08,1.1560331074451056,0.10636029453723224,0.891368844667474
0.11051859298964639,0.016182997011811192,5.7095439523166955e-08,1.1612898502712634,0.10531061901841077,0.8914668277658315
0.1107693044219946,0.016185216710347852,5.6514832646812205e-08,1.16905331690574,0.10427130377794495,0.8915956883591077
0.11102001585434282,0.01618812262013862,5.5972037080006797e-08,1.176717440415293,0.10324224656028455,0.8917716601709572
0.11127072728669103,0.016191901354328977,5.547847375522616e-08,1.1808901744710327,0.10222334611924479,0.8920171554109003
0.11152143871903925,0.016196826288319473,5.504194673723104e-08,1.1805646106963656,0.10121450220805239,0.8923536277743285
0.11177215015138746,0.016203138369060538,5.4664998354832874e-08,1.176886084724805,0.10021561556944543,0.892794214057604
0.11202286158373567,0.016210974921548427,5.4346649293554714e-08,1.1712310107245523,0.09922658792585498,0.8933443586074868
0.11227357301608389,0.01622039398457606,5.4084416126208673e-08,1.1645545792160594,0.09824732196970073,0.894005303420725
0.1125242844484321,0.0162314096383912,5.3875403691766366e-08,1.1574394319063093,0.09727772135380265,0.8947763488649785
0.11277499588078031,0.016244013400349974,5.3716771251134774e-08,1.1502321935093438,0.09631769068189756,0.8956559239318933
0.11302570731312853,0.016258185295728988,5.36059126286596e-08,1.143139142906526,0.09536713549925416,0.896642070736361
0.11327641874547674,0.01627389951988972,5.354051615527138e-08,1.1362828821552482,0.09442596228338247,0.8977326709611139
0.11352713017782495,0.016291127415709636,5.3518574704762806e-08,1.1297350941107542,0.0934940784348355,0.8989255567226695
0.11377784161017317,0.01630983909481385,5.3538375512556474e-08,1.1235357560717558,0.09257139226810177,0.9002185670580904
0.11402855304252138,0.016330004347928383,5.359848264601165e-08,1.1177047024489495,0.09165781300258784,0.9016095774152721
0.1142792644748696,0.016351593167378792,5.369771782391143e-08,1.112248776455986,0.09075325075368948,0.9030965150649183
0.11452997590721781,0.016374576049873933,5.383514210645977e-08,1.1071663687638391,0.08985761652395063,0.9046773668565428
0.11478068733956602,0.016398924170633326,5.401003952498999e-08,1.102450364204988,0.08897082219430984,0.9063501826682764
0.11503139877191423,0.016424609480040472,5.4221903045359984e-08,1.0980900924284327,0.08809278051543266,0.9081130763734824
0.11528211020426245,0.016451604752578345,5.44704229473661e-08,1.0940726399588674,0.08722340509912946,0.9099642253536752
0.11553282163661066,0.01647988360587594,5.4755477566165953e-08,1.0903837437683843,0.08636261040985771,0.9119018691578691
0.11578353306895887,0.016509420500835537,5.507712629164152e-08,1.087008405231379,0.08551031175630874,0.9139243076676544
0.11603424450130709,0.016540190729748296,5.543560471447125e-08,1.0839313140498483,0.08466642528307648,0.9160298989878597
0.1162849559336553,0.016572170396835062,5.5831321821867795e-08,1.0811371411236876,0.08383086796240902,0.9182170571996089
0.11653566736600351,0.016605336394110166,5.62648591706847e-08,1.0786107399039415,0.08300355758604139,0.9204842500618914
0.11678637879835173,0.01663966637448629,5.673697199560382e-08,1.0763372831753564,0.08218441275710889,0.922829996716113
0.11703709023069994,0.016675138723402722,5.724859224295019e-08,1.0743023539058454,0.08137335288214027,0.9252528654279945
0.11728780166304816,0.016711732529839814,5.780083355544527e-08,1.0724920032236203,0.08057029816313017,0.9277514713881967
0.11753851309539637,0.01674942755730105,5.839499826987345e-08,1.0708927847817358,0.07977516958968942,0.9303244745845443
0.11778922452774458,0.016788204215153264,5.9032586528695715e-08,1.0694917721420236,0.07898788893127329,0.9329705777531095
0.1180399359600928,0.016828043530584334,5.971530764893204e-08,1.0682765639706613,0.0782083787294864,0.9356885244116834
0.11829064739244101,0.01686892712134694,6.044509393829232e-08,1.0672352805334666,0.07743656229046368,0.9384770969766784
0.11854135882478922,0.016910837169393088,6.122411720096882e-08,1.066356554046091,0.07667236367732654,0.941335114962836
0.11879207025713744,0.01695375639546021,6.20548082354315e-08,1.0656295147590342,0.07591570770271387,0.9442614332640504
0.11904278168948565,0.016997668034637804,6.293987969610523e-08,1.065043774165498,0.07516651992138701,0.9472549405129004
0.11929349312183386,0.017042555812921804,6.388235277252676e-08,1.064589406358537,0.07442472662290749,0.9503145575160474
0.11954420455418208,0.017088403924748613,6.488558823669459e-08,1.0642569282964287,0.07369025482438787,0.9534392357624196
0.11979491598653029,0.017135197011489866,6.595332252583117e-08,1.0640372795362323,0.0729630322633141,0.9566279560009612
0.1200456274188785,0.01718292014088192,6.708970966872393e-08,1.0639218018466707,0.072242987390439,0.9598797268847031
0.12029633885122672,0.017231558787359273,6.829937003561399e-08,1.063902218999809,0.07153004936274669,0.9631935836779267
0.12054705028357493,0.017281098813258147,6.958744710247196e-08,1.0639706169569092,0.07082414803648651,0.9665685870232671
0.12079776171592314,0.017331526450854756,7.095967368103062e-08,1.0641194246002854,0.07012521396027659,0.9700038217656836
0.12104847314827136,0.017382828285202028,7.242244938989452e-08,1.0643413951152592,0.0694331783682758,0.9734983958303419
0.12129918458061957,0.01743499123772865,7.398293154742819e-08,1.064629588090041,0.06874797317342432,0.9770514391515788
0.12154989601296778,0.017488002550564506,7.564914217765717e-08,1.0649773523741903,0.06806953096075127,0.9806621026502313
0.121800607445316,0.01754184977155742,7.743009446762105e-08,1.0653783097158964,0.06739778498074998,0.9843295572567504
0.12205131887766421,0.017596520739947278,7.933594284065605e-08,1.0658263391830824,0.06673266914281949,0.988052992977651
0.12230203031001242,0.01765200357266447,8.137816187185358e-08,1.0663155623621527,0.06607411800877247,0.9918316180029613
0.12255274174236064,0.017708286651221185,8.356976064685748e-08,1.0668403293199258,0.065422066786409,0.9956646578524732
0.12280345317470885,0.017765358608930575,8.592554091907139e-08,1.0673952000005438,0.06477645132315572,0.9995513545586988
0.12305416460705706,0.017823208315684208,8.84624094342669e-08,1.0679748723951115,0.06413720809977043,1.003490965844191
0.12330487603940528,0.017881824866451814,9.1199758925963e-08,1.068574238597628,0.06350427422411199,1.007482764167857
0.12355558747175349,0.017941197575539428,9.41599363195046e-08,1.0691884395247402,0.06287758742497532,1.0115260361683784
0.1238062989041017,0.018001315964168187,9.736882091957392e-08,1.069812785354601,0.062257086045991825,1.0156200820570764
0.12405701033644992,0.01806216975030494,1.0085654437296618e-07,1.0704427449348346,0.061642709039596046,1.0197642149568362
0.12430772176879813,0.018123748838929275,1.0465839477788721e-07,1.071073936403912,0.06103439596105859,1.0239577602673993
0.12455843320114635,0.018186043312687653,1.0881596227638609e-07,1.071702118355703,0.06043208696258712,1.028200055055644
0.12480914463349456,0.01824904342291443,1.1337860482576798e-07,1.0723231815194603,0.05983572278749669,1.032490447469534
0.12505985606584277,0.018312739581000742,1.1840534359188229e-07,1.0729331409286205,0.059245244764452316,1.036828296174486
