Time [s],Lmtc [m],STIM [ ],Fsee [N],Gamma [ ],Lcerel [ ]
0.0,0.020646325923182204,0.9999998217039906,0.7433602306882605,0.06518245890296055,1.1968979177001424
0.0015473573835970327,0.02068574881736,0.9999998266878636,1.6743505667172218,0.089926467660581,1.1968979176924008
0.0030947147671940654,0.02071410163018921,0.9999998245863371,2.57444194526181,0.11401551870085472,1.1968979022894648
0.004642072150791098,0.02072000426052284,0.9999998084590936,3.3306677681147803,0.13746694814185068,1.1959283980143804
0.006189429534388131,0.020707046501757725,0.9999997799586531,3.9982478122590175,0.1602976330421425,1.1939597799942656
0.007736786917985163,0.020681426859842346,0.9999997418762695,4.554635169058207,0.18252400377925954,1.1913770240611223
0.009284144301582196,0.020647187606490182,0.9999996957861699,5.003016533404199,0.20416205590318587,1.1884061492324463
0.01083150168517923,0.020607027837118416,0.9999996428590384,5.359915336341789,0.22522736161374934,1.1851822948395592
0.012378859068776261,0.020562762131823585,0.9999995840877239,5.644743699873551,0.24573508095574387,1.1817887330591268
0.013926216452373293,0.02051561453339898,0.9999995203567105,5.874710499400985,0.2656999727236986,1.17827847624207
0.015473573835970325,0.020466417491205348,0.9999994524627408,6.063434392664451,0.2851364050798436,1.174686373099729
0.017020931219567357,0.020415744203711908,0.9999993811206173,6.221151498933929,0.30405836589157115,1.1710360197686036
0.01856828860316439,0.020363995256615353,0.9999993069655917,6.355385860849311,0.32247947279542366,1.1673438192343366
0.02011564598676142,0.02031145504212795,0.9999992305559441,6.471629398015619,0.3404129829947588,1.163621438707226
0.021663003370358452,0.020258328629829903,0.9999991523765976,6.5738962342272655,0.3578718027981446,1.1598773421800226
0.023210360753955484,0.020204766087844293,0.9999990728436879,6.665138029450781,0.3748684969053747,1.1561177735244885
0.024757718137552516,0.020150878730930948,0.9999989923097509,6.747543796059948,0.39141529744781,1.1523474037748196
0.026305075521149548,0.020096750133314616,0.999998911069182,6.8227529868490775,0.40752411278956663,1.148569767596146
0.02785243290474658,0.020042443707110825,0.999998829363686,6.892006294891827,0.42320653609588493,1.144787564062232
0.02939979028834361,0.019988007997290853,0.9999987473875128,6.956252580589529,0.4384738536748449,1.1410028680591437
0.030947147671940643,0.01993348043658815,0.9999986652923505,7.016225106658591,0.4533370530984193,1.137217281561083
0.03249450505553768,0.01987889004656421,0.9999985831917931,7.0724962986711555,0.4678068311086993,1.1334320436598344
0.034041862439134714,0.019824259407151164,0.9999985011653492,7.125517418148061,0.48189360131496284,1.1296481117905959
0.03558921982273175,0.01976960611130247,0.9999984192619777,7.175647566976286,0.49560750168711437,1.1258662225109737
0.037136577206328784,0.019714943852361742,0.9999983375031598,7.223175088984816,0.5089584018508722,1.1220869375449345
0.03868393458992582,0.019660283246087876,0.9999982558855227,7.268333507458465,0.5219559101899381,1.118310679059479
0.040231291973522855,0.01960563245865318,0.9999981743830396,7.3113135010951416,0.5346093807602448,1.1145377569719455
0.04177864935711989,0.01955099769113357,0.9999980929488288,7.3522719822407225,0.5469279200212467,1.1107683902885563
0.043326006740716926,0.019496383556704994,0.9999980115165762,7.391339036910687,0.5589203933890883,1.1070027239232874
0.04487336412431396,0.019441793376801686,0.9999979300016003,7.428623273450766,0.5705954316163481,1.1032408420593527
0.046420721507910996,0.019387229415477446,0.9999978483015788,7.4642159769235255,0.5819614370029452,1.0994827788407886
0.04796807889150803,0.019332693066214865,0.9999977662969454,7.498194359978489,0.5930265894426653,1.0957285269840287
0.04951543627510507,0.01927818500183117,0.9999976838509653,7.5306241248536105,0.6037988523096512,1.0919780447556713
0.0510627936587021,0.019223705295514,0.9999976008094886,7.561561496232988,0.6142859781890817,1.0882312616570433
0.05261015104229914,0.019169253519099757,0.9999975170003736,7.591054844733309,0.6244955144561596,1.08448808307777
0.05415750842589617,0.01911482882328457,0.9999974322325659,7.619145991501274,0.6344348087074075,1.0807483941218532
0.05570486580949321,0.019060430003393837,0.9999973462948092,7.645871262767102,0.6441110140481814,1.0770120627653712
0.05725222319309024,0.01900605555353457,0.9999972589539531,7.671262347096794,0.6535310942401907,1.073278942471081
0.05879958057668728,0.018951703711345514,0.9999971699528114,7.6953469960174115,0.6627018287127201,1.0695488743592403
0.060346937960284314,0.01889737249509377,0.9999970790075111,7.71814959958187,0.6716298174411561,1.065821689013858
0.06189429534388135,0.01884305901088178,0.9999969858042499,7.739647563158034,0.6803214856963062,1.0620972079879187
0.06344165272747838,0.018788759346388652,0.9999968899953653,7.759763363060726,0.6887830886679253,1.0583752450588444
0.06498901011107541,0.01873447098358242,0.9999967911945837,7.778510690205254,0.6970207159657532,1.0546556072757651
0.06653636749467244,0.018680191335446523,0.9999966889712879,7.795904743696128,0.7050402960012891,1.0509380958324603
0.06808372487826947,0.0186259177045912,0.999996582843594,7.811959032366646,0.7128476002534296,1.0472225067936907
0.0696310822618665,0.01857164729571353,0.9999964722699725,7.826685568560541,0.7204482474210168,1.0435086316977078
0.07117843964546353,0.018517377225962625,0.9999963566390732,7.840095032118832,0.7278477074652477,1.0397962580537246
0.07272579702906055,0.018463104533531616,0.9999962352573125,7.852196909618315,0.7350513055448156,1.0360851697499323
0.07427315441265758,0.018408826184741135,0.9999961073336523,7.862999612964735,0.7420642258465615,1.0323751473849674
0.07582051179625461,0.018354539079834177,0.9999959719608188,7.872510580690347,0.7488915153143288,1.0286659685336201
0.07736786917985164,0.018300240057664497,0.9999958280919702,7.880736364702033,0.7555380872786169,1.0249574079557693
0.07891522656344867,0.01824592589943048,0.999995674511489,7.887682704739419,0.7620087249895491,1.0212492377560787
0.0804625839470457,0.018191593331581195,0.9999955097981108,7.893354592409299,0.768308085055546,1.017541227500763
0.08200994133064272,0.018137239028000598,0.9999953322779526,7.897756326342917,0.7744407007900065,1.0138331442967254
0.08355729871423975,0.01808285961155861,0.999995139964064,7.900891559762154,0.7804109854681615,1.0101247528375163
0.08510465609783678,0.018028451655103316,0.9999949304777823,7.902763341527311,0.7862232354961167,1.0064158154198397
0.08665201348143381,0.01797401168527067,0.9999947009451737,7.903374355654821,0.7918816334939379,1.0027060919337494
0.08819937086503084,0.017919536736159047,0.9999944478612933,7.902760890381002,0.7973902512943817,0.9989953399988126
0.08974672824862787,0.017865022052512745,0.9999941669135971,7.900818271686161,0.8027530528586629,0.9952833516165858
0.0912940856322249,0.017810464530078292,0.9999938527261315,7.89748258201779,0.8079738971103662,0.991569986574893
0.09284144301582192,0.01775586216904575,0.9999934984983117,7.892754397255775,0.8130565406875776,0.9878551089643427
0.09438880039941895,0.017701212927006847,0.9999930954957754,7.886633937253929,0.8180046406126064,0.98413858077644
0.09593615778301598,0.017646514719586,0.9999926323068535,7.879121080763042,0.8228217568775654,0.9804202619322567
0.09748351516661301,0.017591765420857473,0.9999920937275724,7.870215378315664,0.8275113549418295,0.9767000102998095
0.09903087255021004,0.017536962863566468,0.9999914590390033,7.859916063310723,0.8320768081338786,0.9729776817010857
0.10057822993380706,0.01748210483916948,0.9999906992520051,7.848222061499479,0.8365213999439677,0.9692531299095352
0.10212558731740409,0.01742718909770651,0.999989772517061,7.8351319990421295,0.840848326183178,0.9655262066387087
0.10367294470100112,0.017372213347516263,0.9999886160955624,7.820644209274078,0.8450606969638293,0.9617967615226541
0.10522030208459815,0.01731717525480329,0.9999871314586155,7.804756738289923,0.8491615384149528,0.9580646420885864
0.10676765946819518,0.017262072443064498,0.9999851545080665,7.78746734941504,0.8531537939579393,0.9543296937222812
0.1083150168517922,0.017206902492380674,0.9999823901300733,7.768773526575915,0.8570403247601973,0.9505917596266029
0.10986237423538923,0.01715166293857678,0.9999782488099991,7.748672476467217,0.860823908444498,0.946850680773573
0.11140973161898626,0.017096351272251915,0.9999713575010395,7.727161129164513,0.8645072335078264,0.9431062958504854
0.11295708900258329,0.01704096493767979,0.9999576099833094,7.7042361364024705,0.868092880941105,0.9393584412010646
0.11450444638618032,0.016985501331687768,0.9999166285935884,7.67989387135883,0.8715832547302138,0.9356069507647964
0.11605180376977735,0.0169299724378909,0.6755177039295951,7.655017388946014,0.8749801558509619,0.931851656033936
0.11759916115337438,0.016874325885924697,3.180543048251446e-05,7.625926729100917,0.8631357411121816,0.9280931363120201
0.1191465185369714,0.016818365593456595,1.3670450039131298e-05,7.57826215809208,0.8118829426765721,0.9243342761124311
0.12069387592056843,0.01676234277686472,7.728540388126978e-06,7.524708914359156,0.7636725939428438,0.920578000954738
0.12224123330416546,0.01670625824110639,4.88985811710712e-06,7.46433515746582,0.7183247502582861,0.9168254997036435
0.12378859068776249,0.01665011410104516,3.2892363674019926e-06,7.396046081964997,0.6756696127856037,0.9130782655322252
0.12533594807135953,0.016593914357553457,2.299222565786815e-06,7.318570554712527,0.6355473550336839,0.9093381619418438
0.12688330545495657,0.01653766572656415,1.6501952459425805e-06,7.230454607407732,0.5978076041713394,0.9056075021497478
0.12843066283855362,0.0164813788270443,1.2076184084122467e-06,7.130066827237231,0.5623089008927483,0.9018891442103375
0.12997802022215066,0.01642506986507894,8.972341507900026e-07,7.015622200620925,0.5289181781304155,0.898186604468865
0.1315253776057477,0.016368762985914633,6.749852475323396e-07,6.8852323994818265,0.49751026628132594,0.8945041921336451
0.13307273498934474,0.016312493495902955,5.132908354430609e-07,6.736991232625887,0.46796742602801317,0.8908471678247211
0.13462009237294179,0.01625631216927405,3.9416339767079447e-07,6.569103121577717,0.44017890808697163,0.8872219288232273
0.13616744975653883,0.01620029083150887,3.0549357651405177e-07,6.380058829655452,0.4140405386916422,0.8836362232748722
0.13771480714013587,0.016144529327326955,2.389234206049402e-07,6.168855101419752,0.38945432946989966,0.8800993946052548
0.1392621645237329,0.01608916381285116,1.8856907264996887e-07,5.93524280834515,0.36632811036175394,0.8766226556292426
0.14080952190732995,0.016034376046760085,1.502225408642572e-07,5.679972697526155,0.34457518425951866,0.8732193889664935
0.142356879290927,0.01598040301343666,1.2083604033933122e-07,5.4049925536894845,0.32411400210895847,0.8699054661023411
0.14390423667452404,0.01592754586165003,9.8179465715527e-08,5.113541007240552,0.3048678572731682,0.8666995716861718
0.14545159405812108,0.015876176914465388,8.060746013807263e-08,4.810089154703652,0.2867645980255933,0.8636235132278678
0.14699895144171812,0.01582674357405346,6.689784770475103e-08,4.500106686231375,0.2697363571021402,0.8607024922655225
0.14854630882531517,0.015779768459877344,5.613773483412474e-08,4.189670552110155,0.2537192973036048,0.8579653185624785
0.1500936662089122,0.015735846015261918,4.7642310172199367e-08,3.884972665438391,0.23865337219813623,0.855444574009274
0.15164102359250925,0.015695636379474937,4.089679844555744e-08,3.5917866147261828,0.22448210102899985,0.8531767704125076
0.1531883809761063,0.015659855561729868,3.551517877555987e-08,3.3149023597913483,0.21115235698546428,0.8512025025354383
0.15473573835970333,0.015646325923180517,1.265084830505899e-07,3.7463660552063076,0.19861416804427096,0.8495661896949909
0.1551917716174271,0.015642769526755466,1.2406763627663246e-07,3.597096654707519,0.19506303260477406,0.8495661896927111
0.15564780487515084,0.015639231503571036,1.2167043570688012e-07,3.45160862049968,0.19157539312509875,0.8495661910482277
0.1561038381328746,0.015635715421489463,1.1931609835507792e-07,3.3099981499382585,0.18815011426783498,0.8495661924860821
0.15655987139059835,0.015632224588651624,1.1700385781933848e-07,3.1723387817699065,0.1847860809959352,0.8495661940141934
0.1570159046483221,0.015628762151502853,1.147329614021328e-07,3.038687219019282,0.18148219820973532,0.8495661956415043
0.15747193790604586,0.01562533108798465,1.1250266986541468e-07,2.9090839535542234,0.1782373903904644,0.849566197378165
0.1579279711637696,0.015621934202314487,1.1031225719016461e-07,2.783553988040086,0.17505060125012936,0.8495661992357568
0.15838400442149336,0.015618574121294049,1.0816101034028743e-07,2.662107638874699,0.17192079338765964,0.8495662012275659
0.15884003767921712,0.015615253292071241,1.0604822903080227e-07,2.544741403948248,0.16884694795120025,0.8495662033689316
0.15929607093694087,0.015611973981268432,1.0397322550026982e-07,2.4314388796234545,0.16582806430644306,0.8495662056776861
0.15975210419466462,0.015608738275380458,1.0193532428741494e-07,2.322171712135707,0.1628631597108887,0.8495662081747194
0.16020813745238838,0.015605548082339531,9.993386201191479e-08,2.216900569624479,0.1599512689939324,0.8495662108847144
0.16066417071011213,0.015602405134141325,9.796818715934699e-08,2.115576122180615,0.15709144424267077,0.8495662138371141
0.16112020396783588,0.015599310990427204,9.603765987032491e-08,2.0181400185958527,0.15428275449332546,0.8495662170674242
0.16157623722555964,0.015596267042922059,9.414165173390307e-08,1.9245258499027182,0.1515242854281853,0.8495662206189892
0.1620322704832834,0.015593274520637862,9.227954558542502e-08,1.8346600912941282,0.14881513907796676,0.8495662245454734
0.16248830374100715,0.01559033449577207,9.045073530914216e-08,1.7484630156462135,0.14615443352949628,0.8495662289144075
0.1629443369987309,0.015587447890265272,8.865462564621198e-08,1.6658495737584724,0.1435413026386198,0.8495662338124027
0.16340037025645465,0.015584615483049898,8.689063200921518e-08,1.5867302388871278,0.1409748957482451,0.8495662393530723
0.1638564035141784,0.015581837918161335,8.515818030539795e-08,1.5110118169889488,0.13845437741142583,0.8495662456895365
0.16431243677190216,0.015579115714199909,8.34567067731485e-08,1.4385982314959243,0.13597892711939732,0.8495662530351217
0.1647684700296259,0.01557644927643434,8.178565784165217e-08,1.3693913088691159,0.13354773903447484,0.8495662616996541
0.16522450328734967,0.015573838915152275,8.014449003803412e-08,1.303291640436565,0.13116002172772753,0.8495662721579493
0.16568053654507342,0.01557128488177895,7.853267001057032e-08,1.2401997647431258,0.1288149979213435,0.8495662851921496
0.16613656980279717,0.015568787468664608,7.694967490672597e-08,1.1800186547759193,0.12651190423560085,0.8495663022296528
0.16659260306052093,0.015566347437552523,7.539499428350052e-08,1.1226632699141486,0.12424999094036412,0.8495663263208566
0.16704863631824468,0.015563970355666194,7.386814662093906e-08,1.0681561708908007,0.1220285217110222,0.849566366089146
0.16750466957596843,0.015562074517182167,7.236996149699483e-08,1.0256325458664042,0.11984677338879271,0.8495664709101258
0.1679607028336922,0.01556100316016161,7.090322761014742e-08,1.0009410901413756,0.11770403574533367,0.8495697714616376
0.16841673609141594,0.015560198287755721,6.946945950917254e-08,0.9795057938413568,0.11559961125157589,0.8495819333966146
0.1688727693491397,0.015559683038887247,6.806851570647369e-08,0.9612834074053425,0.11353281485063141,0.8496043640806338
0.16932880260686345,0.01555951179769258,6.670091537717705e-08,0.9467110556088696,0.11150297373475507,0.8496391013328378
0.1697848358645872,0.015559771652261876,6.536840388293694e-08,0.936521780838433,0.1095094271263361,0.849689464615369
0.17024086912231096,0.015560606841205417,6.4075232744113e-08,0.9318986043149832,0.10755152606281523,0.8497612438426981
0.1706969023800347,0.015562261245963025,6.283168070176389e-08,0.9344950194618928,0.10562863318547062,0.8498656004480946
0.17115293563775846,0.015565092153317906,6.166327494562756e-08,0.944252972106706,0.10374012253204379,0.8500271589409374
0.17160896889548222,0.015569519981289325,6.061725155810985e-08,0.9517416572817412,0.10188537933323774,0.8503049089914444
0.17206500215320597,0.015576608817320155,5.973505920731686e-08,0.9486477161030233,0.10006379981296977,0.8507977501517872
0.17252103541092972,0.015587478643107763,5.902438198964846e-08,0.9393859515086572,0.09827479099170397,0.8515679702882939
0.17297706866865348,0.015602489501614674,5.8471538910673935e-08,0.9281453472865983,0.09651777049280012,0.852626854593932
0.17343310192637723,0.015621641112060412,5.805943424156266e-08,0.9167279908053997,0.09479216635254678,0.8539686462104064
0.17388913518410098,0.01564482243420344,5.7772777798460474e-08,0.9058572329796345,0.09309741683391204,0.8555834304380932
0.17434516844182474,0.01567189008770308,5.759886868276661e-08,0.8958149006600421,0.09143297024371802,0.8574604843599669
0.1748012016995485,0.015702693876561934,5.752741639838977e-08,0.8866912169048649,0.08979828475309813,0.8595892346585978
0.17525723495727225,0.01573708595282694,5.7550195877154135e-08,0.878488662438889,0.08819282822116163,0.8619595559969728
0.175713268214996,0.015774924258868277,5.766071854931929e-08,0.8711687254065845,0.08661607802180467,0.8645618574589965
0.17616930147271975,0.01581607373634587,5.785395718535691e-08,0.8646743785427895,0.0850675208736128,0.8673870925974881
0.1766253347304435,0.015860406592070768,5.812612579571779e-08,0.8589414026534357,0.08354665267279919,0.8704267402457434
0.17708136798816726,0.015907802148055164,5.847450725658957e-08,0.8539042428559761,0.08205297832912667,0.873672774338077
0.177537401245891,0.015958146508735286,5.8897320386250634e-08,0.8494990451867627,0.08058601160476023,0.8771176303534386
0.17799343450361477,0.016011332154449845,5.9393619292690584e-08,0.845665182625823,0.07914527495599845,0.880754171704737
0.17844946776133852,0.01606725751423665,5.99632192822809e-08,0.8423459506446165,0.07773029937783327,0.884575657533146
0.17890550101906227,0.01612582654417925,6.060664498303719e-08,0.8394888001193905,0.07634062425128761,0.8885757125120656
0.17936153427678603,0.016186948324088436,6.132509748889541e-08,0.8370453129992331,0.0749757971934818,0.8927482988587612
0.17981756753450978,0.01625053667833292,6.212043828357865e-08,0.8349710382007589,0.07363537391038039,0.8970876905550319
0.18027360079223353,0.016316509822941687,6.299518849562756e-08,0.8332252560224893,0.0723189180521715,0.9015884496843568
0.1807296340499573,0.016384790039131736,6.395254271583094e-08,0.8317707111010161,0.07102600107123197,0.9062454047509708
0.18118566730768104,0.01645530337237876,6.49963972171487e-08,0.8305733373179979,0.06975620208263275,0.9110536308310522
0.1816417005654048,0.016527979355628587,6.613139299372556e-08,0.829601988138654,0.06850910772713859,0.9160084314047904
0.18209773382312855,0.016602750755017257,6.736297461570755e-08,0.8288281798601852,0.06728431203665848,0.9211053217236962
0.1825537670808523,0.016679553336401084,6.869746651616388e-08,0.8282258515983054,0.06608141630210285,0.926340013576496
0.18300980033857606,0.016758325651022858,7.014216902406939e-08,0.8277711436225564,0.0649000289436047,0.9317084013273015
0.1834658335962998,0.016839008838714694,7.170547727770042e-08,0.8274421943173832,0.06373976538306335,0.9372065491104071
0.18392186685402356,0.016921546447136743,7.339702715076678e-08,0.8272189552621623,0.06260024791896882,0.942830679076407
0.18437790011174732,0.01700588426566118,7.522787356953825e-08,0.8270830234838321,0.06148110560346751,0.9485771605941365
0.18483393336947107,0.017091970172621693,7.721070818637911e-08,0.8270174897114072,0.06038197412162896,0.95444250032198
0.18528996662719482,0.017179753994758244,7.936012542996018e-08,0.8270068013709903,0.059302495672875044,0.9604233330704273
0.18574599988491858,0.017269187377789527,8.16929486496746e-08,0.827036639051305,0.05824231885453446,0.9665164133852955
