time [s],Lmtc [m],STIM [ ],Fsee [N]
0.0,0.0455023795366287,0.00091552734375,0.10904046370002739
0.0004999999999999,0.0455023273825645,0.0006103515625,0.10900601143243485
0.001,0.0455024540424346,0.00030517578125,0.10908651758967643
0.0014999999999999,0.045501984655857,0.00030517578125,0.10878488199689436
0.002,0.0455022081732749,0.00030517578125,0.10893142439280686
0.0024999999999999,0.0455021597445011,0.0006103515625,0.10890126807248289
0.003,0.0455022454261779,-0.00030517578125,0.10895721195167947
0.0034999999999999,0.0455022528767585,0.0006103515625,0.10896199226253875
0.004,0.0455023124814033,0.0006103515625,0.10900010375553819
0.0044999999999999,0.0455021932721138,0.00091552734375,0.10892335321716154
0.005,0.0455022454261779,0.0006103515625,0.10895743095809937
0.0054999999999999,0.0455024279654026,0.00091552734375,0.10907436219777128
0.006,0.0455021969974041,-0.00030517578125,0.10892516453715247
0.0064999999999999,0.0455023534595966,0.0006103515625,0.1090258070738655
0.007,0.0455022491514682,0.00030517578125,0.10895818820460501
0.0074999999999999,0.0455022305250167,0.00030517578125,0.10894628543740997
0.008,0.045502383261919,0.00091552734375,0.10904421407600161
0.0084999999999999,0.0455024316906929,0.00030517578125,0.10907415519773517
0.009,0.045502420514822,-0.00030517578125,0.10906554063675203
0.0094999999999999,0.0455023050308227,0.0,0.10899023631680108
0.01,0.0455021522939205,0.0006103515625,0.10889235037687044
0.0104999999999999,0.0455020293593406,0.0006103515625,0.1088165033208996
0.011,0.0455005951225757,0.0006103515625,0.10791043939665036
0.0114999999999999,0.0454989746212959,0.00030517578125,0.10691477118127271
0.012,0.0454955212771892,0.0006103515625,0.10480256599561827
0.0124999999999999,0.0454908236861228,0.0006103515625,0.10200151900869768
0.013,0.0454847924411296,0.00091552734375,0.0985070168846363
0.0134999999999999,0.0454777404665946,0.0006103515625,0.09456956741491145
0.014,0.0454695150256156,0.00030517578125,0.09015277291550126
0.0144999999999999,0.0454606562852859,0.00091552734375,0.08562856609416378
0.015,0.045451570302248,0.0006103515625,0.08125335381282675
0.0154999999999999,0.0454423688352108,0.0006103515625,0.07709523975922461
0.016,0.0454328395426273,0.00091552734375,0.07304428735339662
0.0164999999999999,0.045423325151205,0.0006103515625,0.06928614629249814
0.017,0.0454132258892059,0.0006103515625,0.06551701318030125
0.0174999999999999,0.0454037599265575,0.0006103515625,0.062341424368657215
0.018,0.045394167304039,0.00030517578125,0.0593548475069143
0.0184999999999999,0.0453847125172615,0.0006103515625,0.056671577163418724
0.019,0.0453749373555183,0.00030517578125,0.05406757159247302
0.0194999999999999,0.0453656874597072,0.00030517578125,0.05191055395189695
0.02,0.0453560128808021,0.0006103515625,0.049754947951121994
0.0204999999999999,0.0453466475009918,0.00091552734375,0.04791274921308783
0.021,0.0453371405601501,0.00030517578125,0.046169045294826114
0.0214999999999999,0.0453278422355651,0.00030517578125,0.04465560194816195
0.022,0.0453186109662056,0.00030517578125,0.043291998769990375
0.0224999999999999,0.0453090593218803,0.0,0.041913805858296675
0.023,0.0452999621629715,0.0006103515625,0.04081797589018803
0.0234999999999999,0.0452907159924507,0.0006103515625,0.03974563242061621
0.024,0.0452808588743209,0.00030517578125,0.03852564655945353
0.0244999999999999,0.0452719181776046,0.0006103515625,0.0377300384303331
0.025,0.0452625714242458,0.00030517578125,0.03683220559547643
0.0254999999999999,0.0452531538903713,0.00030517578125,0.0359650599443576
0.026,0.0452435426414012,0.00030517578125,0.03508191605327373
0.0264999999999999,0.0452345609664917,0.0006103515625,0.034468364129967746
0.027,0.0452252365648746,0.00030517578125,0.0337583333606621
0.0274999999999999,0.0452158339321613,0.00030517578125,0.03305437821307858
0.028,0.045206356793642,0.00030517578125,0.03235695520030283
0.0284999999999999,0.0451970845460891,0.00030517578125,0.03175771274749143
0.029,0.0451877452433109,0.0006103515625,0.03115531647200174
0.0294999999999999,0.0451782941818237,0.00030517578125,0.030535975548172382
0.03,0.0451690033078193,0.0006103515625,0.029989622251939213
0.0304999999999999,0.0451595112681388,0.0,0.029391958656731405
0.031,0.0451503582298755,0.00030517578125,0.028920562368866882
0.0314999999999999,0.0451409220695495,0.00030517578125,0.028365268432379735
0.032,0.0451315604150295,0.00030517578125,0.027847779435621695
0.0324999999999999,0.0451222322881221,0.00030517578125,0.027350719709484914
0.033,0.0451132431626319,0.00030517578125,0.02696563812784064
0.0334999999999999,0.0451038852334022,0.00091552734375,0.026465292407878937
0.034,0.0450945720076561,0.00030517578125,0.025987970579904318
0.0344999999999999,0.0450851470232009,0.00091552734375,0.025484505803669746
0.035,0.0450760647654533,0.0006103515625,0.025092709509699166
0.0354999999999999,0.045066624879837,0.0,0.024594749998981858
0.036,0.0450575537979602,0.00091552734375,0.02421439169983291
0.0364999999999999,0.0450483411550521,0.001220703125,0.023791748719661276
0.037,0.0450387746095657,0.00030517578125,0.023271311245089982
0.0374999999999999,0.045029304921627,0.00030517578125,0.022791898137413273
0.038,0.0450203791260719,0.0006103515625,0.022474506627777183
0.0384999999999999,0.0450109615921974,0.00030517578125,0.022014078780641787
0.039,0.0450014621019363,0.0,0.021539750719105615
0.0394999999999999,0.0449924506247043,0.00030517578125,0.021208478071994327
0.04,0.0449829623103141,0.00030517578125,0.020744275653693946
0.0404999999999999,0.044973649084568,0.00091552734375,0.020336788842167757
0.041,0.0449643395841121,0.00091552734375,0.019934693971868794
0.0414999999999999,0.0449552126228809,0.0006103515625,0.019584662203265615
0.042,0.0449458435177803,-0.00030517578125,0.01917105700965428
0.0424999999999999,0.0449364706873893,0.00030517578125,0.018762426605743076
0.043,0.0449275411665439,0.00091552734375,0.018472708600880867
0.0434999999999999,0.0449178814888,0.0006103515625,0.017993525319689264
0.044,0.0449087247252464,0.0006103515625,0.017653585987817643
0.0444999999999999,0.0448994934558868,0.0,0.01729544891889051
0.045,0.0448902882635593,0.0006103515625,0.016946136126753504
0.0454999999999999,0.0448808558285236,0.0006103515625,0.016543836725934125
0.046,0.0448716208338737,0.0006103515625,0.016196264234163472
0.0464999999999999,0.044862225651741,0.0006103515625,0.01581325135629864
0.047,0.0448529906570911,0.00091552734375,0.015474003767183324
0.0474999999999999,0.04484374076128,0.0006103515625,0.015133798528730638
0.048,0.0448343269526958,0.00091552734375,0.014758913690251235
0.0484999999999999,0.0448250398039817,0.0006103515625,0.014419261752498703
0.049,0.044815506786108,0.00030517578125,0.014028132282171427
0.0494999999999999,0.0448065102100372,0.00091552734375,0.013764105818457755
0.05,0.0447971150279045,0.0,0.013410184383931155
0.0504999999999999,0.0447877310216426,0.00030517578125,0.013064568331432158
0.051,0.0447784103453159,0.0006103515625,0.012737886296000804
0.0514999999999999,0.0447691343724727,0.0,0.012424716921454266
0.052,0.0447596088051795,0.0,0.012062794719178675
0.0524999999999999,0.0447507016360759,0.0006103515625,0.011835692647085613
0.053,0.0447411760687828,0.00030517578125,0.011479286712545573
0.0534999999999999,0.0447318702936172,0.0,0.011174862686401317
0.054,0.0447226352989673,0.0006103515625,0.010888155099884049
0.0544999999999999,0.0447132475674152,0.00030517578125,0.010574135011295454
0.055,0.0447041727602481,0.00091552734375,0.010325562811644198
0.0554999999999999,0.044694397598505,0.0006103515625,0.00994412509924861
0.056,0.044685248285532,0.00091552734375,0.009691308207032644
0.0564999999999999,0.0446762964129447,0.0006103515625,0.009476028695325867
0.057,0.0446665696799755,0.00091552734375,0.009117982833859378
0.0574999999999999,0.0446573868393898,0.0,0.008867674409741143
0.058,0.0446483492851257,0.00030517578125,0.008644812499183707
0.0584999999999999,0.0446387752890586,0.0006103515625,0.008328661344280454
0.059,0.0446292981505394,0.00091552734375,0.008037084165216053
0.0595,0.0446199923753738,0.00030517578125,0.00778042123223599
0.06,0.0446106866002082,0.0,0.007527370624297732
0.0605,0.044601559638977,0.00030517578125,0.0073070455058946455
0.061,0.0445922203361988,0.0006103515625,0.007054018401728278
0.0615,0.0445830971002578,0.0006103515625,0.006839368033613382
0.062,0.0445735193789005,0.00030517578125,0.006555859974125441
0.0625,0.0445640608668327,0.00030517578125,0.006297819848430126
0.0629999999999999,0.0445552244782447,0.00091552734375,0.0061382054166320595
0.0635,0.0445457994937896,0.0006103515625,0.005890458034820084
0.0639999999999999,0.0445365086197853,0.0006103515625,0.00566749192631356
0.0645,0.0445272363722324,0.00030517578125,0.005450959825521649
0.0649999999999999,0.0445178598165512,0.00030517578125,0.00522360554609
0.0655,0.044508472084999,0.0,0.00499951008948196
0.0659999999999999,0.0444994643330574,0.00091552734375,0.004830739285438523
0.0665,0.0444898828864097,0.0006103515625,0.004588153897749735
0.0669999999999999,0.044480811804533,0.00030517578125,0.004417520356125915
0.0675,0.0444714687764644,0.0006103515625,0.004214643055267595
0.0679999999999999,0.0444622039794921,0.00091552734375,0.004025792828706092
0.0685,0.044452928006649,0.00030517578125,0.0038393361604922714
0.0689999999999999,0.044443592429161,0.00091552734375,0.003649828091727166
0.0695,0.0444343276321888,0.00030517578125,0.003472821560518597
0.0699999999999999,0.0444247648119926,-0.00030517578125,0.0032668087856863167
0.0705,0.0444154664874076,0.0006103515625,0.003095680776464131
0.0709999999999999,0.0444064363837242,0.0006103515625,0.0029565864070406835
0.0715,0.0443970672786235,0.00091552734375,0.002784839732054434
0.0719999999999999,0.0443876348435878,0.0006103515625,0.0026117151866534936
0.0725,0.0443783514201641,0.0,0.002458196581845426
0.0729999999999999,0.0443690083920955,0.0006103515625,0.002303245540376586
0.0735,0.0443594716489315,0.00030517578125,0.00213561275758152
0.0739999999999999,0.0443505048751831,0.00030517578125,0.002023422042663502
0.0745,0.0443409010767936,0.00030517578125,0.0018596624152927561
0.0749999999999999,0.0443316549062728,0.00030517578125,0.00173146378175416
0.0755,0.0443223416805267,0.00030517578125,0.001602002117994176
0.0759999999999999,0.0443131923675537,0.00030517578125,0.001489238169160761
0.0765,0.0443037152290344,0.00030517578125,0.0013564010508312569
0.0769999999999999,0.0442945435643196,0.0006103515625,0.0012502803606834517
0.0775,0.0442851558327674,0.0006103515625,0.0011336774690799305
0.0779999999999999,0.0442759953439235,0.0006103515625,0.001036471013467635
0.0785,0.0442665368318557,-0.00030517578125,0.0009253372085562435
0.0789999999999999,0.0442573577165603,0.00030517578125,0.0008357204796016767
0.0795,0.0442481078207492,0.0006103515625,0.0007463262850133487
0.0799999999999999,0.0442386381328105,0.00030517578125,0.0006505633650330709
0.0805,0.0442294739186763,0.0006103515625,0.0005751306934960158
0.0809999999999999,0.0442202314734458,0.00030517578125,0.0005004115475467083
0.0815,0.0442111231386661,0.0006103515625,0.00043584940341685725
0.0819999999999999,0.0442013069987297,0.0006103515625,0.0003491018236153595
0.0825,0.0441922172904014,0.00030517578125,0.0002955106241526428
0.0829999999999999,0.0441828295588493,0.00030517578125,0.0002369471743708491
0.0835,0.0441735908389091,0.00030517578125,0.00018847619674612542
0.0839999999999999,0.0441642738878726,0.00030517578125,0.00014339091234735185
0.0845,0.0441550910472869,0.0006103515625,0.00010686191374689819
0.0849999999999999,0.044145543128252,0.0006103515625,6.938899910176193e-05
0.0855,0.0441364347934722,0.0006103515625,4.5381926089137774e-05
0.0859999999999999,0.0441269949078559,0.0,2.307741872461757e-05
0.0865,0.0441176630556583,0.0006103515625,8.763482629699076e-06
0.0869999999999999,0.0441081970930099,0.0,9.383491664909414e-07
0.0875,0.0440990664064884,-0.00030517578125,0.0
0.0879999999999999,0.0440898090600967,0.00030517578125,0.0
0.0885,0.0440803319215774,0.0006103515625,0.0
0.0889999999999999,0.0440711379051208,0.00030517578125,0.0
0.0895,0.0440620854496955,0.00030517578125,0.0
0.0899999999999999,0.04405228048563,0.0006103515625,0.0
0.0905,0.0440430976450443,0.0006103515625,0.0
0.0909999999999999,0.0440337397158145,0.0006103515625,0.0
0.0915,0.0440244972705841,0.0,0.0
0.0919999999999999,0.0440149195492267,0.0006103515625,0.0
0.0925,0.0440058410167694,0.0006103515625,0.0
0.0929999999999999,0.0439964346587657,0.0006103515625,0.0
0.0935,0.04398700222373,0.0,0.0
0.0939999999999999,0.0439776889979839,0.00091552734375,0.0
0.0945,0.043968629091978,0.00030517578125,0.0
0.0949999999999999,0.0439593195915222,0.00030517578125,0.0
0.0955,0.043950006365776,0.00091552734375,0.0
0.0959999999999999,0.0439406931400299,0.0006103515625,0.0
0.0965,0.0439312756061553,0.00030517578125,0.0
0.0969999999999999,0.0439218468964099,0.00091552734375,0.0
0.0975,0.0439128279685974,0.0,0.0
0.0979999999999999,0.0439037643373012,0.0006103515625,0.0
0.0985,0.0438941493630409,0.00091552734375,0.0
0.0989999999999999,0.0438848175108432,0.0,0.0
0.0995,0.0438755042850971,0.00030517578125,0.0
0.0999999999999999,0.0438663363456726,0.0,0.0
0.1005,0.0438569076359272,0.00030517578125,0.0
0.1009999999999999,0.043847594410181,0.0006103515625,0.0
0.1015,0.043838296085596,0.00091552734375,0.0
0.1019999999999999,0.0438290648162364,0.00030517578125,0.0
0.1025,0.0438197404146194,0.0006103515625,0.0
0.1029999999999999,0.0438103340566158,0.00030517578125,0.0
0.1035,0.043801162391901,0.0006103515625,0.0
0.1039999999999999,0.0437919273972511,0.00030517578125,0.0
0.1045,0.0437824726104736,0.0006103515625,0.0
0.1049999999999999,0.0437729991972446,0.0,0.0
0.1055,0.0437638536095619,0.00030517578125,0.0
0.1059999999999999,0.0437545776367187,0.00030517578125,0.0
0.1065,0.043745070695877,0.00030517578125,0.0
0.1069999999999999,0.0437357872724533,0.00030517578125,0.0
0.1075,0.0437267385423183,0.00091552734375,0.0
0.1079999999999999,0.0437170304358005,0.0006103515625,0.0
0.1085,0.0437076687812805,0.00030517578125,0.0
0.1089999999999999,0.0436987578868866,0.0006103515625,0.0
0.1095,0.0436893478035926,0.0,0.0
0.1099999999999999,0.0436798296868801,0.0006103515625,0.0
0.1105,0.0436706095933914,0.00091552734375,0.0
0.1109999999999999,0.0436613708734512,0.00030517578125,0.0
0.1115,0.0436516851186752,0.0006103515625,0.0
0.1119999999999999,0.043642770498991,0.0006103515625,0.0
0.1125,0.0436333045363426,0.00030517578125,0.0
0.1129999999999999,0.0436237938702106,0.00091552734375,0.0
0.1135,0.0436144471168518,0.00030517578125,0.0
0.1139999999999999,0.0436052307486534,0.0,0.0
0.1145,0.0435959249734878,0.0006103515625,0.0
0.1149999999999999,0.0435864888131618,0.00030517578125,0.0
0.1155,0.0435774065554142,0.00030517578125,0.0
0.1159999999999999,0.043568205088377,0.0006103515625,0.0
0.1165,0.0435587204992771,0.00030517578125,0.0
0.1169999999999999,0.0435492880642414,0.0,0.0
0.1175,0.0435402691364288,0.0006103515625,0.0
0.118,0.0435307845473289,0.00091552734375,0.0
0.1185,0.0435215011239051,0.00091552734375,0.0
0.119,0.0435121804475784,0.00091552734375,0.0
0.1195,0.0435029678046703,0.0006103515625,0.0
0.12,0.0434939339756965,0.00030517578125,0.0
0.1205,0.0434843935072422,0.00030517578125,0.0
0.121,0.0434751212596893,0.0006103515625,0.0
0.1215,0.0434657111763954,0.0,0.0
0.122,0.0434569381177425,0.00030517578125,0.0
0.1225,0.0434474870562553,0.00030517578125,0.0
0.123,0.0434378385543823,0.0006103515625,0.0
0.1235,0.0434289127588272,0.00030517578125,0.0
0.124,0.0434195026755332,-0.00030517578125,0.0
0.1245,0.0434101596474647,0.00030517578125,0.0
0.125,0.0434006564319133,0.00091552734375,0.0
0.1254999999999999,0.0433917567133903,0.00091552734375,0.0
0.126,0.0433820113539695,0.0,0.0
0.1264999999999999,0.0433728583157062,0.0006103515625,0.0
0.127,0.043363444507122,0.0,0.0
0.1274999999999999,0.0433541350066661,0.00091552734375,0.0
0.128,0.0433452017605304,0.0006103515625,0.0
0.1284999999999999,0.043335922062397,0.0006103515625,0.0
0.129,0.0433263219892978,0.00030517578125,0.0
0.1294999999999999,0.0433171167969703,0.0,0.0
0.13,0.0433077029883861,0.0006103515625,0.0
0.1304999999999999,0.043298240751028,0.00030517578125,0.0
0.131,0.0432891733944416,0.0006103515625,0.0
0.1314999999999999,0.0432796217501163,0.0006103515625,0.0
0.132,0.0432705543935298,0.00091552734375,0.0
0.1324999999999999,0.0432610474526882,0.0006103515625,0.0
0.133,0.0432519763708114,0.0006103515625,0.0
0.1334999999999999,0.0432425029575824,0.00030517578125,0.0
0.134,0.0432332903146743,0.00030517578125,0.0
0.1344999999999999,0.04322374984622,0.00091552734375,0.0
0.135,0.0432146750390529,0.0,0.0
0.1354999999999999,0.0432052016258239,0.00091552734375,0.0
0.136,0.043196003884077,0.0,0.0
0.1364999999999999,0.0431865490972995,0.0006103515625,0.0
0.137,0.0431773178279399,0.0006103515625,0.0
0.1374999999999999,0.0431679151952266,0.00030517578125,0.0
0.138,0.0431585758924484,0.0,0.0
0.1384999999999999,0.0431495271623134,0.0006103515625,0.0
0.139,0.0431401059031486,0.00030517578125,0.0
0.1394999999999999,0.0431306213140487,0.00030517578125,0.0
0.14,0.0431216806173324,0.00030517578125,0.0
0.1404999999999999,0.0431122593581676,0.00091552734375,0.0
0.141,0.0431031212210655,0.0006103515625,0.0
0.1414999999999999,0.0430937111377716,0.0006103515625,0.0
0.142,0.0430846065282821,0.00030517578125,0.0
0.1424999999999999,0.043074894696474,0.0,0.0
0.143,0.0430656597018241,0.00091552734375,0.0
0.1434999999999999,0.0430565178394317,0.00091552734375,0.0
0.144,0.0430472530424594,0.00030517578125,0.0
0.1444999999999999,0.0430377908051013,0.0006103515625,0.0
0.145,0.0430285334587097,0.00091552734375,0.0
0.1454999999999999,0.0430192872881889,0.00030517578125,0.0
0.146,0.0430101007223129,0.00030517578125,0.0
0.1464999999999999,0.04300057888031,0.00030517578125,0.0
0.147,0.0429911948740482,0.00030517578125,0.0
0.1474999999999999,0.0429818890988826,0.00030517578125,0.0
0.148,0.0429725050926208,0.00030517578125,0.0
0.1484999999999999,0.0429632849991321,0.00030517578125,0.0
0.149,0.0429539047181606,0.0,0.0
0.1494999999999999,0.0429448783397674,0.001220703125,0.0
0.15,0.0429353006184101,0.0006103515625,0.0
0.1504999999999999,0.0429260805249214,0.0,0.0
0.151,0.042917039245367,0.00030517578125,0.0
0.1514999999999999,0.0429073385894298,0.00030517578125,0.0
0.152,0.0428981743752956,0.0006103515625,0.0
0.1524999999999999,0.0428887382149696,0.00030517578125,0.0
0.153,0.042879544198513,0.00030517578125,0.0
0.1534999999999999,0.0428702533245086,0.0,0.0
0.154,0.0428605712950229,0.0006103515625,0.0
0.1544999999999999,0.042851336300373,0.0006103515625,0.0
0.155,0.0428422801196575,0.0006103515625,0.0
0.1554999999999999,0.0428328774869442,0.0006103515625,0.0
0.156,0.0428232625126838,0.00030517578125,0.0
0.1564999999999999,0.0428140014410018,0.00091552734375,0.0
0.157,0.0428047999739646,0.00030517578125,0.0
0.1574999999999999,0.0427955016493797,0.0006103515625,0.0
0.158,0.0427859090268611,0.00030517578125,0.0
0.1584999999999999,0.042777094990015,0.00030517578125,0.0
0.159,0.0427673570811748,0.00091552734375,0.0
0.1594999999999999,0.0427584685385227,0.00091552734375,0.0
0.16,0.0427487082779407,0.0006103515625,0.0
0.1604999999999999,0.0427395217120647,0.00091552734375,0.0
0.161,0.0427301526069641,0.0006103515625,0.0
0.1614999999999999,0.0427208766341209,0.00030517578125,0.0
0.162,0.042711567133665,0.0,0.0
0.1624999999999999,0.0427023246884346,0.0006103515625,0.0
0.163,0.042693130671978,-0.00030517578125,0.0
0.1634999999999999,0.0426838435232639,0.00030517578125,0.0
0.164,0.0426745750010013,0.0006103515625,0.0
0.1644999999999999,0.0426650531589984,-0.00030517578125,0.0
0.165,0.0426558777689933,0.00030517578125,0.0
0.1654999999999999,0.0426465608179569,0.0006103515625,0.0
0.166,0.0426371395587921,0.00030517578125,0.0
0.1664999999999999,0.0426279008388519,0.0006103515625,0.0
0.167,0.0426187552511692,0.00030517578125,0.0
0.1674999999999999,0.0426092781126499,0.00030517578125,0.0
0.168,0.0426000542938709,0.00030517578125,0.0
0.1684999999999999,0.0425908863544464,0.0006103515625,0.0
