Time [s],Lmtc [m],STIM [ ],fGM [N],fGL [N]
0.0,0.04154065251350403,-0.00030517578125,0.09882406145334244,0.09485942125320435
0.0004999999999999449,0.04154084622859955,0.00030517578125,0.0986679270863533,0.09481243789196014
0.0010000000000000009,0.041540589183568954,0.00030517578125,0.09905634820461273,0.09562302380800247
0.0014999999999999458,0.04154069349169731,0.0006103515625,0.0989188402891159,0.09457257390022278
0.0020000000000000018,0.041540373116731644,0.00030517578125,0.0987011268734932,0.09513386338949203
0.0024999999999999467,0.041540730744600296,0.0006103515625,0.09897761046886444,0.09453321248292923
0.0030000000000000027,0.04154064878821373,0.0006103515625,0.09931670874357224,0.09473692625761032
0.0034999999999999476,0.041540663689374924,0.00030517578125,0.09920206665992737,0.0936184749007225
0.0040000000000000036,0.04154079407453537,0.0006103515625,0.09889188408851624,0.09530137479305267
0.0044999999999999485,0.04154053330421448,0.0,0.09944252669811249,0.09396030008792877
0.0050000000000000044,0.04154079407453537,0.00030517578125,0.09933269768953323,0.09464619308710098
0.005499999999999949,0.04154069721698761,0.0006103515625,0.09923754632472992,0.09436864405870438
0.006000000000000005,0.041540663689374924,0.00030517578125,0.09876932203769684,0.09383401274681091
0.00649999999999995,0.04154053330421448,0.00030517578125,0.09837746620178223,0.09473126381635666
0.007000000000000006,0.041540488600730896,0.0,0.09751880913972855,0.09385130554437637
0.007499999999999951,0.0415397584438324,0.0006103515625,0.09597333520650864,0.09401693195104599
0.008000000000000007,0.04153868183493614,0.00030517578125,0.09377985447645187,0.09427047520875931
0.008499999999999952,0.041536640375852585,0.0006103515625,0.09078536182641983,0.09535292536020279
0.009000000000000008,0.04153265431523323,0.0,0.08801038563251495,0.09448438137769699
0.009499999999999953,0.041528332978487015,0.0006103515625,0.08486820012331009,0.09514500200748444
0.010000000000000009,0.041522473096847534,0.0,0.08249005675315857,0.09402108937501907
0.010499999999999954,0.04151624068617821,0.0006103515625,0.07979637384414673,0.09374213218688965
0.01100000000000001,0.04150911420583725,-0.00030517578125,0.0777461975812912,0.09458758682012558
0.011499999999999955,0.041501935571432114,0.00030517578125,0.07607543468475342,0.09458454698324203
0.01200000000000001,0.04149388149380684,0.0,0.07404885441064835,0.09393465518951416
0.012499999999999956,0.04148625582456589,0.00030517578125,0.07352946698665619,0.09417271614074707
0.013000000000000012,0.04147849604487419,0.0006103515625,0.0718969777226448,0.09473930299282074
0.013499999999999956,0.04147045314311981,0.00091552734375,0.07098405063152313,0.09474225342273712
0.014000000000000012,0.04146231338381767,0.0006103515625,0.0697975754737854,0.0942312553524971
0.014499999999999957,0.04145471751689911,0.00030517578125,0.06845618784427643,0.09470426291227341
0.015000000000000013,0.041446998715400696,0.0006103515625,0.06728702783584595,0.09395438432693481
0.015499999999999958,0.04143960401415825,0.0006103515625,0.06619752943515778,0.09385206550359726
0.016000000000000014,0.0414319783449173,0.00091552734375,0.06503854691982269,0.0950092226266861
0.01649999999999996,0.04142402485013008,0.00030517578125,0.06450754404067993,0.09469155967235565
0.017000000000000015,0.04141640663146973,0.00030517578125,0.06315712630748749,0.09385517984628677
0.01749999999999996,0.041408784687519073,0.00030517578125,0.06215520575642586,0.09378789365291595
0.018000000000000016,0.04140091314911842,0.00030517578125,0.06221245229244232,0.09339241683483124
0.01849999999999996,0.04139336571097374,0.0006103515625,0.06163562461733818,0.09397770464420319
0.019000000000000017,0.041385725140571594,0.0,0.06048530340194702,0.09306968748569489
0.019499999999999962,0.04137815907597542,0.00030517578125,0.060340892523527145,0.09379754960536957
0.020000000000000018,0.04137009382247925,0.0006103515625,0.05920600891113281,0.09218268096446991
0.020499999999999963,0.04136277362704277,0.0,0.05861523374915123,0.09325052797794342
0.02100000000000002,0.04135517776012421,0.00030517578125,0.05872439965605736,0.09277784824371338
0.021499999999999964,0.04134783893823624,0.0006103515625,0.05849863588809967,0.09324029088020325
0.02200000000000002,0.041339974850416183,0.0006103515625,0.05786054581403732,0.09300338476896286
0.022499999999999964,0.04133249819278717,0.00030517578125,0.057783614844083786,0.09280945360660553
0.02300000000000002,0.041324861347675323,0.00030517578125,0.057333700358867645,0.0929047018289566
0.023499999999999965,0.04131726175546646,0.00091552734375,0.05668113753199577,0.09252225607633591
0.02400000000000002,0.04130970686674118,0.0006103515625,0.0562727153301239,0.09342607110738754
0.024499999999999966,0.04130199924111366,-0.0006103515625,0.055669788271188736,0.09208536148071289
0.025000000000000022,0.04129459708929062,0.0,0.055647872388362885,0.09356819093227386
0.025499999999999967,0.04128680378198624,0.0,0.055045537650585175,0.09262388944625854
0.026000000000000023,0.04127941653132439,0.00030517578125,0.05481627583503723,0.09258078783750534
0.026499999999999968,0.04127158969640732,0.0006103515625,0.05485575646162033,0.09179732203483582
0.027000000000000024,0.04126400128006935,0.00030517578125,0.05450139939785004,0.09216393530368805
0.02749999999999997,0.04125631973147392,0.0006103515625,0.05444149300456047,0.0922883078455925
0.028000000000000025,0.04124896228313446,0.0,0.05378749966621399,0.09179000556468964
0.02849999999999997,0.04124131053686142,0.00091552734375,0.0539526641368866,0.09263502061367035
0.029000000000000026,0.04123372212052345,0.0006103515625,0.052902355790138245,0.0922040045261383
0.02949999999999997,0.041226282715797424,0.0006103515625,0.05301027372479439,0.09266535937786102
0.030000000000000027,0.04121873900294304,0.00030517578125,0.05256045609712601,0.09225565940141678
0.03049999999999997,0.0412108413875103,0.0,0.05199838802218437,0.09163801372051239
0.031000000000000028,0.04120341315865517,0.0006103515625,0.05194206163287163,0.09169798344373703
0.03149999999999997,0.04119580239057541,0.00030517578125,0.05154835060238838,0.09251105785369873
0.03200000000000003,0.04118829220533371,-0.00030517578125,0.051197800785303116,0.0919586643576622
0.03249999999999997,0.04118059203028679,0.00030517578125,0.05054895952343941,0.0915367379784584
0.03300000000000003,0.041173141449689865,0.0006103515625,0.050814323127269745,0.09177213907241821
0.033499999999999974,0.0411655530333519,0.0006103515625,0.050058502703905106,0.09169445186853409
0.03400000000000003,0.041158050298690796,0.00091552734375,0.04998302459716797,0.0919063463807106
0.034499999999999975,0.04115033522248268,0.00030517578125,0.04960937425494194,0.09133531153202057
0.03500000000000003,0.04114305600523949,0.00030517578125,0.0491701140999794,0.09076739102602005
0.035499999999999976,0.041135337203741074,0.00030517578125,0.049527607858181,0.09073988348245621
0.03600000000000003,0.04112767055630684,0.00030517578125,0.04843929782509804,0.09248772263526917
0.03649999999999998,0.041120339184999466,0.00030517578125,0.04841497913002968,0.09238489717245102
0.03700000000000003,0.0411127507686615,0.00030517578125,0.0479530394077301,0.09236014634370804
0.03749999999999998,0.041105084121227264,0.00030517578125,0.04697764292359352,0.0915692001581192
0.038000000000000034,0.041097674518823624,0.00091552734375,0.04664359986782074,0.09210136532783508
0.03849999999999998,0.041090160608291626,0.00030517578125,0.04624248296022415,0.09159967303276062
0.039000000000000035,0.04108261689543724,0.0006103515625,0.04577616974711418,0.09243493527173996
0.03949999999999998,0.04107498750090599,0.00030517578125,0.04545409604907036,0.09293647110462189
0.040000000000000036,0.041067276149988174,0.00030517578125,0.04518352821469307,0.09281541407108307
0.04049999999999998,0.04105975478887558,0.0006103515625,0.04538359120488167,0.0920119509100914
0.041000000000000036,0.04105233773589134,0.00030517578125,0.04448471963405609,0.09302753955125809
0.04149999999999998,0.04104460030794144,0.00030517578125,0.04425353184342384,0.09243687242269516
0.04200000000000004,0.041037075221538544,0.00030517578125,0.044080398976802826,0.09347215294837952
0.04249999999999998,0.04102941229939461,0.00030517578125,0.04341063275933266,0.09321357309818268
0.04300000000000004,0.04102182015776634,0.00030517578125,0.0426640547811985,0.0924314334988594
0.04349999999999998,0.04101427271962166,0.0006103515625,0.04248223453760147,0.09271132200956345
0.04400000000000004,0.04100671783089638,0.0006103515625,0.04217623919248581,0.0939704105257988
0.044499999999999984,0.04099906608462334,0.0,0.041957829147577286,0.09232978522777557
0.04500000000000004,0.04099167510867119,0.00091552734375,0.04142974317073822,0.09334453195333481
0.045499999999999985,0.0409843884408474,0.0006103515625,0.04054410755634308,0.0934048667550087
0.04600000000000004,0.040976423770189285,0.0006103515625,0.040509700775146484,0.09270589053630829
0.046499999999999986,0.04096892476081848,0.00091552734375,0.040058035403490067,0.09343306720256805
0.04700000000000004,0.040961530059576035,0.0006103515625,0.03971957042813301,0.09341821819543839
0.04749999999999999,0.04095407575368881,0.00030517578125,0.0392090268433094,0.09224630892276764
0.04800000000000004,0.0409463606774807,0.00091552734375,0.03866998851299286,0.09296181797981262
0.04849999999999999,0.04093876853585243,0.0006103515625,0.03821670264005661,0.09235222637653351
0.049000000000000044,0.040931586176157,0.00091552734375,0.03816601261496544,0.0928228348493576
0.04949999999999999,0.04092370346188545,0.00030517578125,0.03766576573252678,0.09221788495779037
0.050000000000000044,0.04091578722000122,0.00030517578125,0.03733934089541435,0.09277030825614929
0.05049999999999999,0.0409083254635334,0.0006103515625,0.036863114684820175,0.09214199334383011
0.051000000000000045,0.040900819003582,0.00030517578125,0.036729924380779266,0.09133011847734451
0.05149999999999999,0.0408933199942112,0.0006103515625,0.03574898838996887,0.09222114831209183
0.052000000000000046,0.040885843336582184,0.00030517578125,0.035467974841594696,0.0920477882027626
0.05249999999999999,0.04087791219353676,0.0,0.03520584478974342,0.09215681254863739
0.05300000000000005,0.04087051376700401,0.00030517578125,0.0351046584546566,0.09194526821374893
0.05349999999999999,0.04086310788989067,0.00030517578125,0.034721389412879944,0.09317873418331146
0.05400000000000005,0.040855396538972855,0.00030517578125,0.03411179408431053,0.09265400469303131
0.05449999999999999,0.04084799066185951,0.0,0.033970966935157776,0.09356636554002762
0.05500000000000005,0.04084010049700737,0.0006103515625,0.03347168117761612,0.09248805046081543
0.055499999999999994,0.04083267226815224,0.0006103515625,0.03311389312148094,0.09292623400688171
0.05600000000000005,0.040825001895427704,0.0006103515625,0.032569769769907,0.09328971058130264
0.056499999999999995,0.040817417204380035,0.0,0.03222633898258209,0.09293777495622635
0.05700000000000005,0.04080986976623535,0.00030517578125,0.03238053619861603,0.09227094054222107
0.057499999999999996,0.040802206844091415,0.0006103515625,0.03186700865626335,0.09272290766239166
0.05800000000000005,0.0407944992184639,0.00030517578125,0.03170466795563698,0.09218016266822815
0.058499999999999996,0.0407872274518013,0.00030517578125,0.03145236149430275,0.09158700704574585
0.05900000000000005,0.04077940434217453,0.0006103515625,0.031221920624375343,0.0923895537853241
0.0595,0.040771905332803726,0.0006103515625,0.03015224263072014,0.09224523603916168
0.06000000000000005,0.04076443240046501,0.00030517578125,0.030258875340223312,0.09206151962280273
0.0605,0.04075700044631958,0.00030517578125,0.029983332380652428,0.0925847738981247
0.061000000000000054,0.04074908792972565,0.00030517578125,0.02981419675052166,0.09269576519727707
0.0615,0.040741607546806335,0.0006103515625,0.029587414115667343,0.09240955114364624
0.062000000000000055,0.04073401913046837,0.00091552734375,0.029181363061070442,0.09270504862070084
0.0625,0.040726546198129654,0.00030517578125,0.029015395790338516,0.09265348315238953
0.06299999999999994,0.04071873798966408,0.00030517578125,0.028476297855377197,0.0915183275938034
0.0635,0.04071151837706566,0.0006103515625,0.028480365872383118,0.0923868790268898
0.06399999999999995,0.040703870356082916,0.00091552734375,0.02822919376194477,0.09156986325979233
0.0645,0.04069627448916435,0.0,0.028083784505724907,0.09221215546131134
0.06499999999999995,0.04068855196237564,0.0006103515625,0.02753852866590023,0.09187070280313492
0.0655,0.04068097472190857,0.0,0.02748984284698963,0.09207925200462341
0.06599999999999995,0.04067326709628105,0.0006103515625,0.027373284101486206,0.0907747820019722
0.0665,0.04066579416394234,0.0006103515625,0.027157142758369446,0.09225106984376907
0.06699999999999995,0.04065840691328049,0.0006103515625,0.02686287648975849,0.09234093874692917
0.0675,0.040650609880685806,0.00030517578125,0.02640015445649624,0.09205971658229828
0.06799999999999995,0.04064329341053963,0.00091552734375,0.026500685140490532,0.09167074412107468
0.0685,0.040635645389556885,0.00030517578125,0.026288816705346107,0.09244108200073242
0.06899999999999995,0.04062788560986519,0.00030517578125,0.02603302337229252,0.09238807111978531
0.0695,0.0406203530728817,0.00091552734375,0.02586696669459343,0.09179933369159698
0.06999999999999995,0.04061267152428627,0.00030517578125,0.025819839909672737,0.09251226484775543
0.07050000000000001,0.04060540720820427,0.00091552734375,0.025766799226403236,0.09217306971549988
0.07099999999999995,0.04059762880206108,0.0006103515625,0.025446392595767975,0.09169849753379822
0.07150000000000001,0.04059014469385147,0.00030517578125,0.025411011651158333,0.09221722185611725
0.07199999999999995,0.04058239981532097,0.0,0.025023091584444046,0.0912766307592392
0.07250000000000001,0.04057513549923897,0.00091552734375,0.02481214702129364,0.09166721999645233
0.07299999999999995,0.0405673086643219,0.0006103515625,0.024638639762997627,0.09103396534919739
0.07350000000000001,0.040559738874435425,0.0006103515625,0.024213220924139023,0.09065857529640198
0.07399999999999995,0.04055211693048477,0.0006103515625,0.024011753499507904,0.09081215411424637
0.07450000000000001,0.04054427146911621,0.0,0.024248579517006874,0.09173961728811264
0.07499999999999996,0.04053685441613197,0.0006103515625,0.023909974843263626,0.09086746722459793
0.07550000000000001,0.04052925854921341,0.0006103515625,0.02378758229315281,0.0919196680188179
0.07599999999999996,0.040521860122680664,0.00030517578125,0.023539280518889427,0.09189311414957047
0.07650000000000001,0.04051399230957031,0.0006103515625,0.023317141458392143,0.09108394384384155
0.07699999999999996,0.04050687700510025,0.00091552734375,0.022627122700214386,0.09158094227313995
0.07750000000000001,0.040498897433280945,0.001220703125,0.0228373222053051,0.09196048974990845
0.07799999999999996,0.04049132019281387,0.0006103515625,0.02293877676129341,0.09189555794000626
0.07850000000000001,0.040483519434928894,0.00030517578125,0.0228787399828434,0.0912284106016159
0.07899999999999996,0.040476150810718536,0.0006103515625,0.022886205464601517,0.09104973822832108
0.07950000000000002,0.04046871140599251,0.0,0.022276366129517555,0.09164123982191086
0.07999999999999996,0.040460824966430664,0.0006103515625,0.02219056710600853,0.09164263308048248
0.08050000000000002,0.04045329615473747,0.00030517578125,0.022212853655219078,0.09093130379915237
0.08099999999999996,0.040445711463689804,0.00091552734375,0.021807653829455376,0.09111862629652023
0.08150000000000002,0.04043817147612572,0.00091552734375,0.021470271050930023,0.09112680703401566
0.08199999999999996,0.040430497378110886,0.0006103515625,0.021164027974009514,0.09104620665311813
0.08250000000000002,0.04042305797338486,0.00030517578125,0.020974531769752502,0.09129781275987625
0.08299999999999996,0.04041530564427376,0.0,0.021396096795797348,0.0910220518708229
0.08350000000000002,0.040407806634902954,0.0006103515625,0.021010687574744225,0.09104295074939728
0.08399999999999996,0.04040040820837021,0.0006103515625,0.021263988688588142,0.09160351008176804
0.08450000000000002,0.0403926745057106,0.00030517578125,0.020779386162757874,0.09152820706367493
0.08499999999999996,0.04038509353995323,0.00091552734375,0.02049817144870758,0.0917360931634903
0.08550000000000002,0.04037731885910034,0.00030517578125,0.020305568352341652,0.09073559194803238
0.08599999999999997,0.04037006199359894,0.0,0.020583640784025192,0.09146006405353546
0.08650000000000002,0.0403623953461647,0.00091552734375,0.02014581859111786,0.0911044254899025
0.08699999999999997,0.040354833006858826,0.00091552734375,0.0197836272418499,0.0913797989487648
0.08750000000000002,0.04034723341464996,0.0006103515625,0.019986480474472046,0.09151414036750793
0.08799999999999997,0.04033982381224632,0.0006103515625,0.01941181905567646,0.0912155732512474
0.08850000000000002,0.0403321236371994,0.0006103515625,0.01966801844537258,0.09112736582756042
0.08899999999999997,0.04032466933131218,0.0006103515625,0.019233128055930138,0.09093132615089417
0.08950000000000002,0.04031705483794212,0.00091552734375,0.018891124054789543,0.09080668538808823
0.08999999999999997,0.04030953347682953,0.0006103515625,0.019151659682393074,0.09105881303548813
0.09050000000000002,0.040302153676748276,0.0006103515625,0.018738044425845146,0.09095888584852219
0.09099999999999997,0.04029444605112076,0.0006103515625,0.018498508259654045,0.09102685749530792
0.09150000000000003,0.04028712213039398,0.0,0.018431220203638077,0.09096711128950119
0.09199999999999997,0.04027942195534706,0.0006103515625,0.018055384978652,0.09083622694015503
0.09250000000000003,0.040271833539009094,0.0,0.0181868989020586,0.0908629447221756
0.09299999999999997,0.04026426747441292,0.00030517578125,0.017994558438658714,0.09152616560459137
0.09350000000000003,0.040256597101688385,0.0006103515625,0.017524713650345802,0.09066814929246902
0.09399999999999997,0.040249090641736984,0.00030517578125,0.01740718074142933,0.09110332280397415
0.09450000000000003,0.040241483598947525,0.00091552734375,0.017370188608765602,0.09098893404006958
0.09499999999999997,0.04023425653576851,0.0006103515625,0.017541972920298576,0.09099654853343964
0.09550000000000003,0.04022646322846413,0.0006103515625,0.01740548387169838,0.09111218899488449
0.09599999999999997,0.040219031274318695,0.0,0.016831660643219948,0.09196887910366058
0.09650000000000003,0.040211331099271774,0.00030517578125,0.016676200553774834,0.09083987027406693
0.09699999999999998,0.040203824639320374,0.00030517578125,0.016829704865813255,0.09098201990127563
0.09750000000000003,0.04019630700349808,0.0,0.016834286972880363,0.09159282594919205
0.09799999999999998,0.04018866643309593,0.0,0.01672387309372425,0.09125205874443054
0.09850000000000003,0.040181051939725876,0.00030517578125,0.016040978953242302,0.09094349294900894
0.09899999999999998,0.04017351195216179,0.0006103515625,0.01595643348991871,0.09048030525445938
0.09950000000000003,0.04016614332795143,0.0006103515625,0.015983713790774345,0.09102021902799606
0.09999999999999998,0.0401584729552269,0.0006103515625,0.015757950022816658,0.09055484086275101
0.10050000000000003,0.04015085846185684,0.00030517578125,0.015687989071011543,0.09139648079872131
0.10099999999999998,0.04014313966035843,0.00030517578125,0.015566768124699593,0.09087924659252167
0.10150000000000003,0.04013560712337494,0.0006103515625,0.01544271782040596,0.09092316031455994
0.10199999999999998,0.040128111839294434,0.0006103515625,0.0151207922026515,0.09100482612848282
0.10250000000000004,0.04012071341276169,0.00091552734375,0.014874687418341637,0.09161628037691116
0.10299999999999998,0.04011303931474686,0.0006103515625,0.015223674476146698,0.0912390947341919
0.10350000000000004,0.04010554030537605,0.0006103515625,0.014477633871138096,0.09067466109991074
0.10399999999999998,0.04009799659252167,0.00091552734375,0.01464246865361929,0.09168563038110733
0.10450000000000004,0.04009053856134415,0.00091552734375,0.014737056568264961,0.09076996892690659
