Time [s],Lmtc [m],STIM [ ],fGM [N],fGL [N]
0.0,0.04154079034924507,0.00030517578125,0.10742142051458359,0.08881726115942001
0.0004999999999999449,0.04154084622859955,0.0006103515625,0.1070653423666954,0.08944861590862274
0.0010000000000000009,0.041540808975696564,0.00030517578125,0.10727708786725998,0.08833909779787064
0.0014999999999999458,0.04154074937105179,0.001220703125,0.10735968500375748,0.08905352652072906
0.0020000000000000018,0.04154067113995552,0.0006103515625,0.10743629187345505,0.08821892738342285
0.0024999999999999467,0.041540782898664474,0.00030517578125,0.10754422098398209,0.08761521428823471
0.0030000000000000027,0.04154093936085701,0.0006103515625,0.1076577678322792,0.08898055553436279
0.0034999999999999476,0.04154081642627716,0.00091552734375,0.10749376565217972,0.08825908601284027
0.0040000000000000036,0.041541025042533875,0.00030517578125,0.10763893276453018,0.08853435516357422
0.0044999999999999485,0.04154079779982567,0.0006103515625,0.10751364380121231,0.08823912590742111
0.0050000000000000044,0.041540734469890594,0.00030517578125,0.10754711925983429,0.08928953111171722
0.005499999999999949,0.04154065251350403,0.0,0.10698167979717255,0.08905629813671112
0.006000000000000005,0.04154062643647194,0.0,0.10782765597105026,0.08891700208187103
0.00649999999999995,0.041540708392858505,0.0006103515625,0.10751756280660629,0.08860937505960464
0.007000000000000006,0.04154081270098686,0.0,0.10746685415506363,0.08946999162435532
0.007499999999999951,0.041540585458278656,0.00030517578125,0.10665284842252731,0.08900950103998184
0.008000000000000007,0.04154027998447418,0.0006103515625,0.10570481419563293,0.08916670083999634
0.008499999999999952,0.04153929278254509,0.00030517578125,0.10337041318416595,0.08846226334571838
0.009000000000000008,0.04153689369559288,0.00030517578125,0.10021529346704483,0.0886341854929924
0.009499999999999953,0.041533514857292175,0.00030517578125,0.0960647463798523,0.08938325196504593
0.010000000000000009,0.04152815043926239,0.00030517578125,0.09183161705732346,0.0881073921918869
0.010499999999999954,0.04152129963040352,0.0006103515625,0.08731096237897873,0.08916512131690979
0.01100000000000001,0.04151243716478348,0.0006103515625,0.0830969512462616,0.08890413492918015
0.011499999999999955,0.04150278493762016,0.0006103515625,0.07936061918735504,0.08949708938598633
0.01200000000000001,0.04149124026298523,0.00030517578125,0.07588230073451996,0.08919020742177963
0.012499999999999956,0.041479289531707764,0.0006103515625,0.07323121279478073,0.08964125066995621
0.013000000000000012,0.041466549038887024,0.00030517578125,0.07110866904258728,0.08963830769062042
0.013499999999999956,0.04145358130335808,0.0006103515625,0.06903817504644394,0.08904560655355453
0.014000000000000012,0.04144018143415451,0.0006103515625,0.06739024817943573,0.08917150646448135
0.014499999999999957,0.04142673313617706,0.0006103515625,0.06554455310106277,0.08940722048282623
0.015000000000000013,0.041413966566324234,0.00030517578125,0.06453177332878113,0.08900733292102814
0.015499999999999958,0.04140027239918709,0.0006103515625,0.06288979947566986,0.08848174661397934
0.016000000000000014,0.04138762503862381,0.0006103515625,0.06144474819302559,0.08863112330436707
0.01649999999999996,0.041374556720256805,0.0006103515625,0.06067873165011406,0.08836062997579575
0.017000000000000015,0.04136160761117935,0.0,0.05934811383485794,0.08791850507259369
0.01749999999999996,0.04134875908493996,0.0,0.05825181305408478,0.08824913203716278
0.018000000000000016,0.041335783898830414,0.0006103515625,0.057491254061460495,0.08882112801074982
0.01849999999999996,0.041322894394397736,0.00030517578125,0.056277211755514145,0.08744701743125916
0.019000000000000017,0.04130995273590088,0.0006103515625,0.05549541488289833,0.08762182295322418
0.019499999999999962,0.041297197341918945,0.00030517578125,0.05453389883041382,0.08705747872591019
0.020000000000000018,0.041284605860710144,0.00091552734375,0.05364885926246643,0.08734743297100067
0.020499999999999963,0.04127176105976105,0.0,0.05254070460796356,0.08720380812883377
0.02100000000000002,0.04125897213816643,0.00091552734375,0.05195239186286926,0.0869184136390686
0.021499999999999964,0.04124615341424942,0.00030517578125,0.05122936889529228,0.08758002519607544
0.02200000000000002,0.04123317822813988,0.0006103515625,0.050875358283519745,0.08640024065971375
0.022499999999999964,0.04122041165828705,0.0006103515625,0.05031866580247879,0.08650042116641998
0.02300000000000002,0.041207678616046906,0.00091552734375,0.04933711886405945,0.08624698966741562
0.023499999999999965,0.04119475558400154,0.00030517578125,0.048783037811517715,0.0861065685749054
0.02400000000000002,0.04118194803595543,0.0006103515625,0.04797982797026634,0.08518796414136887
0.024499999999999966,0.041169583797454834,0.00030517578125,0.04730852693319321,0.08506472408771515
0.025000000000000022,0.041156645864248276,0.0006103515625,0.04694843292236328,0.08619306981563568
0.025499999999999967,0.04114384576678276,0.00030517578125,0.045658379793167114,0.08583712577819824
0.026000000000000023,0.041131068021059036,0.00091552734375,0.04570470377802849,0.08495983481407166
0.026499999999999968,0.041118375957012177,0.0006103515625,0.04527394473552704,0.08573091775178909
0.027000000000000024,0.04110542684793472,0.00030517578125,0.04434477910399437,0.0852164551615715
0.02749999999999997,0.041092649102211,0.0006103515625,0.04379088804125786,0.08549579977989197
0.028000000000000025,0.04108022525906563,0.0006103515625,0.04362967610359192,0.08525726944208145
0.02849999999999997,0.041067469865083694,0.00030517578125,0.04296905919909477,0.08532001823186874
0.029000000000000026,0.041054628789424896,0.00030517578125,0.04211006686091423,0.08519990742206573
0.02949999999999997,0.04104190319776535,0.0006103515625,0.041771747171878815,0.08503322303295135
0.030000000000000027,0.041029222309589386,0.0006103515625,0.041767437011003494,0.08550536632537842
0.03049999999999997,0.04101625457406044,0.0,0.041264813393354416,0.08496761322021484
0.031000000000000028,0.041003502905368805,0.00030517578125,0.040931567549705505,0.08521250635385513
0.03149999999999997,0.040991004556417465,0.0006103515625,0.04030247777700424,0.08424072712659836
0.03200000000000003,0.04097839072346687,0.0006103515625,0.03999733924865723,0.08526288717985153
0.03249999999999997,0.0409654900431633,0.00030517578125,0.039596058428287506,0.08455129712820053
0.03300000000000003,0.04095274955034256,0.0,0.03902281075716019,0.0846729576587677
0.033499999999999974,0.040939994156360626,0.0,0.038369789719581604,0.0851186066865921
0.03400000000000003,0.040927305817604065,0.00030517578125,0.037791550159454346,0.08543858677148819
0.034499999999999975,0.04091458022594452,-0.00030517578125,0.03655928000807762,0.08577518910169601
0.03500000000000003,0.04090195894241333,0.00030517578125,0.03664654120802879,0.08514294028282166
0.035499999999999976,0.04088904708623886,0.00091552734375,0.0361749529838562,0.08567860722541809
0.03600000000000003,0.04087643325328827,0.0006103515625,0.0357254259288311,0.08599238842725754
0.03649999999999998,0.040863942354917526,0.00030517578125,0.0355612114071846,0.08606678992509842
0.03700000000000003,0.040850985795259476,0.00091552734375,0.03518269211053848,0.08443937450647354
0.03749999999999998,0.04083818942308426,0.0,0.03401203081011772,0.08611603826284409
0.038000000000000034,0.04082527756690979,0.00030517578125,0.03325708582997322,0.08537926524877548
0.03849999999999998,0.04081273078918457,0.0,0.032757874578237534,0.08613679558038712
0.039000000000000035,0.04079994931817055,0.00030517578125,0.032502755522727966,0.08540835976600647
0.03949999999999998,0.04078725725412369,0.0,0.032130271196365356,0.08581338077783585
0.040000000000000036,0.04077446460723877,0.0,0.03184930980205536,0.08560963720083237
0.04049999999999998,0.04076157510280609,-0.00030517578125,0.0308484248816967,0.08491555601358414
0.041000000000000036,0.04074883460998535,0.0006103515625,0.02988925389945507,0.0846366360783577
0.04149999999999998,0.04073614627122879,0.0,0.029379265382885933,0.08570168912410736
0.04200000000000004,0.04072365537285805,0.00091552734375,0.02905097045004368,0.08635445684194565
0.04249999999999998,0.0407106950879097,0.00030517578125,0.028198039159178734,0.08592543751001358
0.04300000000000004,0.04069799184799194,0.00030517578125,0.02795352041721344,0.08652295917272568
0.04349999999999998,0.04068504273891449,0.0006103515625,0.027788739651441574,0.08552610129117966
0.04400000000000004,0.04067250341176987,0.00030517578125,0.02736574038863182,0.08566319942474365
0.044499999999999984,0.040659721940755844,0.00030517578125,0.026728296652436256,0.08500061929225922
0.04500000000000004,0.04064682871103287,0.00091552734375,0.025801323354244232,0.08672185987234116
0.045499999999999985,0.0406339205801487,0.00030517578125,0.025495164096355438,0.08528662472963333
0.04600000000000004,0.04062139615416527,0.00091552734375,0.025033773854374886,0.08548904955387115
0.046499999999999986,0.04060867056250572,0.001220703125,0.024789612740278244,0.08552353829145432
0.04700000000000004,0.04059583693742752,0.0006103515625,0.024206578731536865,0.08571013063192368
0.04749999999999999,0.04058295488357544,0.0006103515625,0.023557009175419807,0.08484020084142685
0.04800000000000004,0.040570441633462906,0.00030517578125,0.023114493116736412,0.0852179229259491
0.04849999999999999,0.040557682514190674,0.00030517578125,0.023185811936855316,0.08641171455383301
0.049000000000000044,0.04054471477866173,0.00030517578125,0.02213083766400814,0.0858633816242218
0.04949999999999999,0.040531985461711884,0.00091552734375,0.02181561291217804,0.08548655360937119
0.050000000000000044,0.040519215166568756,0.0006103515625,0.02212005853652954,0.08613856136798859
0.05049999999999999,0.04050653800368309,0.00091552734375,0.021444881334900856,0.08590847998857498
0.051000000000000045,0.04049351438879967,0.00091552734375,0.02095603197813034,0.08650761097669601
0.05149999999999999,0.04048081487417221,0.0006103515625,0.020849719643592834,0.08648006618022919
0.052000000000000046,0.040467917919158936,0.0006103515625,0.02031315490603447,0.0865289494395256
0.05249999999999999,0.0404549278318882,0.0006103515625,0.019511671736836433,0.08698266744613647
0.05300000000000005,0.04044225811958313,0.00030517578125,0.019297342747449875,0.08532251417636871
0.05349999999999999,0.0404297299683094,0.0006103515625,0.018954508006572723,0.08666286617517471
0.05400000000000005,0.04041670635342598,0.00030517578125,0.01886903867125511,0.08528383076190948
0.05449999999999999,0.04040376469492912,0.00091552734375,0.01849311962723732,0.08678779006004333
0.05500000000000005,0.040391188114881516,0.0,0.018140481784939766,0.08520770817995071
0.055499999999999994,0.040378738194704056,0.0006103515625,0.018280381336808205,0.08579374104738235
0.05600000000000005,0.040365997701883316,0.0,0.017343467101454735,0.0868394523859024
0.056499999999999995,0.04035314917564392,0.0,0.017231540754437447,0.08573935180902481
0.05700000000000005,0.040340572595596313,0.0006103515625,0.017060503363609314,0.08621612936258316
0.057499999999999996,0.04032767564058304,0.0006103515625,0.016532277688384056,0.0857047513127327
0.05800000000000005,0.040315136313438416,0.0006103515625,0.01615961641073227,0.08679382503032684
0.058499999999999996,0.040302347391843796,0.00030517578125,0.01614535041153431,0.0862039104104042
0.05900000000000005,0.04028971865773201,0.0,0.015517622232437134,0.08633512258529663
0.0595,0.04027649387717247,0.0,0.015574599616229534,0.08575566858053207
0.06000000000000005,0.040264178067445755,0.00030517578125,0.015223640017211437,0.0859033390879631
0.0605,0.04025152325630188,0.0006103515625,0.014657988213002682,0.08548864722251892
0.061000000000000054,0.04023866355419159,0.0006103515625,0.014190047979354858,0.0857134759426117
0.0615,0.04022568464279175,0.0006103515625,0.014204978942871094,0.08501531928777695
0.062000000000000055,0.04021317511796951,0.0006103515625,0.01446276530623436,0.08540163189172745
0.0625,0.04020034894347191,0.00030517578125,0.01376682985574007,0.08524726331233978
0.06299999999999994,0.040187496691942215,0.00091552734375,0.013290566392242908,0.08566786348819733
0.0635,0.04017506539821625,0.00091552734375,0.01338721439242363,0.08554565906524658
0.06399999999999995,0.04016222804784775,0.00030517578125,0.013018629513680935,0.08450563251972198
0.0645,0.04014978185296059,0.00030517578125,0.012288205325603485,0.08552323281764984
0.06499999999999995,0.04013684391975403,-0.00030517578125,0.012491756118834019,0.08568747341632843
0.0655,0.0401243194937706,0.00030517578125,0.012712551280856133,0.08588463068008423
0.06599999999999995,0.04011135175824165,0.00030517578125,0.012259166687726974,0.0851340964436531
0.0665,0.040098559111356735,0.0006103515625,0.011522255837917328,0.0854640081524849
0.06699999999999995,0.040085840970277786,0.00030517578125,0.012087855488061905,0.0857710912823677
0.0675,0.04007299989461899,0.0006103515625,0.011408891528844833,0.08484046906232834
0.06799999999999995,0.04006044566631317,0.0006103515625,0.010875709354877472,0.08492816984653473
0.0685,0.04004742205142975,0.001220703125,0.010647392831742764,0.08534548431634903
0.06899999999999995,0.04003499820828438,0.001220703125,0.010687402449548244,0.08537651598453522
0.0695,0.04002197086811066,0.0006103515625,0.010750185698270798,0.08537427335977554
0.06999999999999995,0.0400092750787735,0.00030517578125,0.010138880461454391,0.08449045568704605
0.07050000000000001,0.03999665752053261,0.0006103515625,0.010496075265109539,0.08533985912799835
0.07099999999999995,0.0399838387966156,0.0,0.00975917000323534,0.08497827500104904
0.07150000000000001,0.03997122868895531,0.0,0.009349683299660683,0.08522957563400269
0.07199999999999995,0.03995828330516815,0.00030517578125,0.009643434546887875,0.08581822365522385
0.07250000000000001,0.03994596004486084,0.0006103515625,0.00927661918103695,0.08522400259971619
0.07299999999999995,0.03993307426571846,0.0006103515625,0.00896711740642786,0.08576137572526932
0.07350000000000001,0.03992016986012459,0.00030517578125,0.00907039362937212,0.08475542813539505
0.07399999999999995,0.03990750387310982,0.0,0.008796889334917068,0.08591476827859879
0.07450000000000001,0.03989453986287117,0.0006103515625,0.008643066510558128,0.08473534137010574
0.07499999999999996,0.03988219052553177,0.00030517578125,0.008584847673773766,0.08493630588054657
0.07550000000000001,0.03986946865916252,0.0006103515625,0.008015209808945656,0.08483371138572693
0.07599999999999996,0.03985656797885895,0.0,0.008192305453121662,0.0853094831109047
0.07650000000000001,0.03984367102384567,0.0,0.0075499010272324085,0.08446112275123596
0.07699999999999996,0.03983090817928314,-0.00030517578125,0.007803124375641346,0.08448188006877899
0.07750000000000001,0.03981836512684822,0.0006103515625,0.007260930724442005,0.08451160788536072
0.07799999999999996,0.03980543464422226,0.00030517578125,0.007037474308162928,0.08450252562761307
0.07850000000000001,0.03979293629527092,0.0006103515625,0.0071805850602686405,0.08419504016637802
0.07899999999999996,0.039779942482709885,0.0006103515625,0.007229930255562067,0.08523126691579819
0.07950000000000002,0.039767201989889145,0.00091552734375,0.0072075421921908855,0.08454469591379166
0.07999999999999996,0.03975457698106766,0.00030517578125,0.0065104472450912,0.08399656414985657
0.08050000000000002,0.03974201902747154,0.00030517578125,0.006803075782954693,0.0850362479686737
0.08099999999999996,0.039729006588459015,0.0,0.006199605762958527,0.08425211161375046
0.08150000000000002,0.039716579020023346,0.0006103515625,0.006323529873043299,0.08481013774871826
0.08199999999999996,0.03970341384410858,0.00030517578125,0.005936166737228632,0.08371586352586746
0.08250000000000002,0.0396910086274147,0.00091552734375,0.0061050462536513805,0.08558273315429688
0.08299999999999996,0.039677686989307404,0.0006103515625,0.005912453401833773,0.08497169613838196
0.08350000000000002,0.03966527059674263,0.00091552734375,0.006123936735093594,0.08398504555225372
0.08399999999999996,0.03965219855308533,0.001220703125,0.005551231559365988,0.084579698741436
0.08450000000000002,0.03963937982916832,0.0006103515625,0.0051901815459132195,0.08406718075275421
0.08499999999999996,0.039626818150281906,0.00091552734375,0.005098360124975443,0.0845942571759224
0.08550000000000002,0.039613742381334305,0.00030517578125,0.004682442639023066,0.08387958258390427
0.08599999999999997,0.039601512253284454,0.0006103515625,0.004719175398349762,0.08436855673789978
0.08650000000000002,0.03958835080265999,0.0006103515625,0.0041995570063591,0.08376887440681458
0.08699999999999997,0.039576005190610886,0.00030517578125,0.004880541004240513,0.0845380425453186
0.08750000000000002,0.03956320136785507,0.00030517578125,0.004536978900432587,0.08426197618246078
0.08799999999999997,0.039550404995679855,0.0006103515625,0.004614084959030151,0.08455159515142441
0.08850000000000002,0.03953767195343971,0.0006103515625,0.004182131960988045,0.08432895690202713
0.08899999999999997,0.0395248644053936,-0.00030517578125,0.004315002355724573,0.08549598604440689
0.08950000000000002,0.039512358605861664,0.00030517578125,0.0037108666729182005,0.08483260124921799
0.08999999999999997,0.03949948027729988,0.0006103515625,0.003771822899580002,0.0847601592540741
0.09050000000000002,0.03948674350976944,0.0006103515625,0.0039413669146597385,0.0840083658695221
0.09099999999999997,0.039474185556173325,0.00091552734375,0.0037757176905870438,0.08404862135648727
0.09150000000000003,0.039461247622966766,0.00030517578125,0.003592126537114382,0.0842682272195816
0.09199999999999997,0.03944850713014603,0.00030517578125,0.0034711796324700117,0.08440227806568146
0.09250000000000003,0.039435841143131256,0.00091552734375,0.003624680917710066,0.08436035364866257
0.09299999999999997,0.039422959089279175,0.00030517578125,0.003336604218930006,0.08434399217367172
0.09350000000000003,0.039410460740327835,0.00030517578125,0.002950090914964676,0.08420749008655548
0.09399999999999997,0.03939781337976456,0.00030517578125,0.002748112427070737,0.08415989577770233
0.09450000000000003,0.03938482701778412,0.00030517578125,0.002756287809461355,0.08361121267080307
0.09499999999999997,0.03937215358018875,0.0006103515625,0.0023289653472602367,0.08395163714885712
0.09550000000000003,0.0393596813082695,0.00030517578125,0.0026473754551261663,0.0848429873585701
0.09599999999999997,0.039346881210803986,0.00030517578125,0.0024379051756113768,0.08422379195690155
0.09650000000000003,0.039333608001470566,0.0006103515625,0.002111836103722453,0.08467120677232742
0.09699999999999998,0.03932095319032669,0.0006103515625,0.0021217630710452795,0.08426457643508911
0.09750000000000003,0.0393083356320858,0.0006103515625,0.002373252995312214,0.08552901446819305
0.09799999999999998,0.03929588571190834,0.0006103515625,0.0015715832123532891,0.08420275896787643
0.09850000000000003,0.03928270936012268,0.0006103515625,0.00231915689073503,0.08472982794046402
0.09899999999999998,0.03927014768123627,0.0,0.0016502742655575275,0.08430096507072449
0.09950000000000003,0.03925744444131851,0.0006103515625,0.0013016036245971918,0.08452155441045761
0.09999999999999998,0.03924465924501419,0.00091552734375,0.0012992140837013721,0.0845358595252037
0.10050000000000003,0.0392320491373539,0.0006103515625,0.0012498123105615377,0.08409533649682999
0.10099999999999998,0.039219193160533905,0.0,0.0012718287762254477,0.08438239246606827
0.10150000000000003,0.03920608013868332,0.00030517578125,0.0012840039562433958,0.08343580365180969
0.10199999999999998,0.039193760603666306,0.0,0.0010766694322228432,0.08427400887012482
0.10250000000000004,0.03918073698878288,0.00091552734375,0.0007797473226673901,0.08384891599416733
0.10299999999999998,0.039168111979961395,0.00030517578125,0.0005614451947622001,0.08457884937524796
0.10350000000000004,0.0391555055975914,0.00030517578125,0.0004534318286459893,0.08435489237308502
0.10399999999999998,0.03914296254515648,0.00091552734375,0.0009651064174249768,0.08523013442754745
