Time [s],Lmtc [m],STIM [ ],Fsee [N],Gamma [ ],Lcerel [ ]
0.0,0.02111048141954712,0.9999997874860934,1.2155146943459068,0.0636274900079355,1.34897926846136
0.0025146227682063416,0.02114562680612886,0.9999997381809903,1.973065895563945,0.11861522034217326,1.3489792684486037
0.005029245536412683,0.021065614008786628,0.9999995724355406,3.055068507351346,0.1703738363523371,1.3399821181665887
0.007543868304619025,0.020966396929177566,0.9999993513575967,3.75108066104497,0.21909295841209908,1.3308908777915258
0.010058491072825367,0.02086038737862501,0.9999990966688165,4.22136983512436,0.26495107517556504,1.3219102085695107
0.012573113841031708,0.020752820860737375,0.9999988267280567,4.580207534248804,0.30811619496589443,1.3130944217224043
0.01508773660923805,0.020645670364705212,0.9999985551543751,4.880139632258109,0.34874646102705625,1.3044545405269652
0.017602359377444393,0.020539674412825903,0.9999982913288364,5.145130563946076,0.3869907305645461,1.2959865869246638
0.020116982145650733,0.020435089411667256,0.999998041304355,5.386902033338042,0.4229891198118579,1.2876812150936374
0.022631604913857073,0.02033197232159572,0.9999978086814795,5.611679834118343,0.4568735171417815,1.2795274409748538
0.025146227682063413,0.020230294560626895,0.9999975953241932,5.823044029892068,0.48876806609707246,1.2715141742806029
0.027660850450269753,0.02012999116042967,0.999997401903382,6.023208704059763,0.5187896200975568,1.263630846821747
0.030175473218476093,0.020030983131094544,0.9999972282931955,6.213635480238185,0.547048170476831,1.255867646131463
0.03269009598668243,0.01993318796974925,0.9999970738530941,6.395346331837419,0.573647249406119,1.2482155717089978
0.03520471875488877,0.01983652462829366,0.9999969376251958,6.569092239932249,0.5986843091733022,1.2406664120631048
0.03771934152309511,0.01974091578317027,0.9999968184705043,6.735448826800897,0.6222510792006748,1.2332126885450283
0.04023396429130145,0.019646288755565334,0.9999967151617271,6.894873108022822,0.6444339021051113,1.225847587881517
0.04274858705950779,0.019552575749117805,0.9999966264455608,7.047738593304124,0.665314050028814,1.2185648937821132
0.04526320982771413,0.019459713746045534,0.9999965510836433,7.1943578324458635,0.6849680223974417,1.2113589223288963
0.04777783259592047,0.019367644239922793,0.999996487878684,7.334997408206661,0.703467826195032,1.204224463041361
0.05029245536412681,0.019276312899438305,0.9999964356903464,7.4698882295256634,0.7208812397815301,1.1971567261167855
0.05280707813233315,0.019185669213016582,0.9999963934440962,7.599232808499159,0.7372720612187736,1.190151295677793
0.05532170090053949,0.019095666140172395,0.9999963601352598,7.723210545181733,0.75270034201425,1.1832040885615573
0.05783632366874583,0.019006259782332252,0.9999963348298618,7.841981661052511,0.7672226071386685,1.1763113180777574
0.06035094643695217,0.01891740907864281,0.99999631666334,7.955690192800978,0.7808920621232255,1.1694694621501274
0.06286556920515851,0.018829075528353587,0.9999963048378979,8.064466317378082,0.7937587879951687,1.1626752352894265
0.06538019197336485,0.018741222939268744,0.9999962986190242,8.168428190741514,0.8058699247657658,1.155925563897613
0.06789481474157119,0.01865381720070764,0.9999962973315435,8.267683425764286,0.8172698441428826,1.149217564460366
0.07040943750977753,0.018566826078944637,0.9999963003554456,8.362330297336646,0.8280003121009191,1.142548524241202
0.07292406027798387,0.018480219032954312,0.9999963071216612,8.452458737589595,0.8381006419037063,1.1359158841420054
0.07543868304619021,0.01839396704832093,0.9999963171078917,8.538151167019468,0.8476078381410062,1.1293172234408013
0.07795330581439655,0.01830804248729408,0.999996329834564,8.619483195368762,0.8565567323063382,1.1227502461577892
0.08046792858260289,0.01822241895313588,0.9999963448609471,8.696524217687156,0.8649801104128617,1.1162127688353431
0.08298255135080923,0.01813707116708242,0.9999963617814548,8.76933792493952,0.8729088331148919,1.109702709547466
0.08549717411901557,0.018051974856415635,0.9999963802221364,8.83798274411075,0.8803719487751542,1.103218077979537
0.08801179688722191,0.017967106652305727,0.999996399837355,8.902512219489312,0.8873967998920477,1.0967569664408272
0.09052641965542825,0.017882443996233136,0.9999964203066392,8.962975344360688,0.894009123276855,1.0903175416905966
0.09304104242363459,0.017797962100408342,0.999996441331695,9.019264333176407,0.9002331443479384,1.0838980374741936
0.09555566519184093,0.017713633201793002,0.9999964626335557,9.071078156746346,0.9060916658874105,1.0774967476787978
0.09807028796004727,0.01762943657938494,0.9999964839498482,9.118444629385035,0.9116061515854685,1.0711120200296964
0.10058491072825361,0.017545352243647762,0.9999965050321484,9.161400542051084,0.916796804678493,1.0647422502575044
0.10309953349645995,0.017461360619199857,0.9999965256433979,9.199978764575139,0.921682641969032,1.058385876674821
0.10561415626466629,0.017377442485254108,0.9999965455553493,9.23420841121213,0.9262815634988659,1.0520413751076767
0.10812877903287263,0.01729357891904035,0.9999965645460057,9.264114984199768,0.9306104181304274,1.0457072541328807
0.11064340180107897,0.017209751241729188,0.9999965823970113,9.289720497346847,0.9346850652768524,1.0393820505772855
0.11315802456928531,0.01712594096641207,0.9999965988909506,9.311043581329072,0.9385204330068302,1.0330643252390272
0.11567264733749165,0.017042129747722626,0.9999966138084975,9.3280995720763,0.942130572737132,1.0267526587942153
0.11818727010569799,0.016958299332707656,0.9999966269253543,9.340900583382853,0.9455287107131969,1.0204456478553021
0.12070189287390433,0.016874431512574777,0.9999966380089002,9.349455564652583,0.9487272964663801,1.0141419011496127
0.12321651564211067,0.01679050807495573,0.9999966468144562,9.353770344495363,0.9517380484253898,1.0078400357882267
0.12573113841031702,0.016706511335716715,0.9999966530815648,9.353878129365931,0.9545719968490136,1.001538673596714
0.12824576117852338,0.01662242388906091,0.9999966565379425,9.349804223622492,0.957239524237427,0.9952364726306877
0.13076038394672973,0.01653822278854744,0.9999966569010483,9.341050600888938,0.9597504033706201,0.9889324263276669
0.13327500671493608,0.01645389604368322,0.9999966538618003,9.327584574738804,0.962113833113134,0.9826256912817269
0.13578962948314244,0.016369432016872753,0.9999966470746996,9.309399077570802,0.9643384721152406,0.9763154191754703
0.1383042522513488,0.016284818873618313,0.999996636149448,9.286484800366605,0.9664324705344597,0.9700007553713913
0.14081887501955515,0.016200044561655316,0.9999966206407181,9.258830173343652,0.968403499893771,0.9636808375004673
0.1433334977877615,0.016115096789008444,0.9999966000355138,9.226421340407441,0.970258781185819,0.9573547940133517
0.14584812055596785,0.016029963000846977,0.999996573737373,9.189242127270246,0.9720051113259828,0.9510217426871793
0.1483627433241742,0.015944630355005075,0.999996541046394,9.14727400305534,0.9736488880510772,0.9446807890805837
0.15087736609238056,0.01585908569601751,0.9999965011336807,9.100496035155798,0.9751961333547301,0.9383310249289769
0.15339198886058691,0.01577331552750484,0.9999964530082422,9.048884837065456,0.9766525155450311,0.9319715264715883
0.15590661162879327,0.015687305982722537,0.999996395473559,8.992414508844204,0.9780233700049186,0.9256013527010344
0.15842123439699962,0.015601042793066962,0.9999963270697844,8.931056569821108,0.9793137187308782,0.9192195435254309
0.16093585716520598,0.015514511254305769,0.9999962459956707,8.864779883074508,0.9805282887208571,0.9128251178321337
0.16345047993341233,0.015427696190271484,0.9999961500013416,8.793550571158596,0.9816715292777695,0.9064170714411565
0.16596510270161868,0.015340581913723648,0.9999960362383179,8.717331922468603,0.9827476282905792,0.8999943749351199
0.16847972546982504,0.015253152184046204,0.9999959010454434,8.636084287551054,0.9837605275504736,0.89355597135122
0.1709943482380314,0.015165390161401868,0.999995739636236,8.549764964569961,0.9847139371550422,0.8871007737191219
0.17350897100623774,0.015077278356912725,0.9999955456302498,8.458328073031876,0.9856113490482176,0.8806276624268893
0.1760235937744441,0.014988798578375043,0.9999953103293501,8.36172441475123,0.9864560497375741,0.8741354823949965
0.17853821654265045,0.014899931870943784,0.9999950215606835,8.259901320898736,0.9872511322223178,0.8676230400360633
0.1810528393108568,0.01481065845213727,0.9999946617500594,8.152802483817014,0.9879995071528676,0.8610890999752324
0.18356746207906316,0.014720957640411,0.9999942045539971,8.040367772104144,0.9887039132219734,0.8545323815029112
0.1860820848472695,0.014630807776429212,0.9999936086131577,7.922533027251298,0.989366926747881,0.8479515547279478
0.18859670761547587,0.014540186136018065,0.9999928050797752,7.7992298398634325,0.9899909703279957,0.8413452363950522
0.19111133038368222,0.01444906883360978,0.9999916702369895,7.670385303170547,0.990578320252175,0.8347119853253302
0.19362595315188857,0.014357430714774745,0.9999899572491611,7.535921741099382,0.9911311118733472,0.8280502974330625
0.19614057592009493,0.0142652452361768,0.9999870923064753,7.395756407474345,0.9916513406561365,0.8213586002652403
0.19865519868830128,0.014172484330956955,0.9999813651903735,7.249801151518853,0.9921408511953871,0.8146352470028766
0.20116982145650764,0.014079118257163285,0.9999643573956097,7.09796204329357,0.9926012793519651,0.8078785098557205
0.203684444224714,0.013985142797108751,0.6882500206895823,6.941378828210564,0.9930336705987955,0.8010865727856715
0.20619906699292034,0.013890319482611919,1.4602152048514767e-05,6.769737246736973,0.960663012467088,0.7942591930225993
0.2087136897611267,0.013794009007653023,5.534233630137888e-06,6.552987686158144,0.8586338660272341,0.7874006463259835
0.21122831252933305,0.013696645946954782,2.729521329644321e-06,6.3093619584867255,0.7674402446165375,0.7805158808662489
0.2137429352975394,0.013598034346266528,1.5017424310710218e-06,6.0312228944665405,0.6859319752513484,0.7736068526683386
0.21625755806574576,0.013497920445952764,8.789321335397323e-07,5.709319433793392,0.6130805467875642,0.7666762841244001
0.2187721808339521,0.013395990757672054,5.368802112064073e-07,5.333574722651668,0.5479665827411656,0.759727543804827
0.22128680360215847,0.013291888622089607,3.395753436730426e-07,4.895063261767793,0.4897683189225605,0.7527642518803408
0.22380142637036482,0.013185261973713417,2.2182984126584714e-07,4.389533414567996,0.43775125604947845,0.7457894363365417
0.22631604913857117,0.01307584729293123,1.4966584387886966e-07,3.822063232938937,0.39125889888678816,0.7388040138986897
0.22883067190677753,0.012963569988428092,1.0436521872163381e-07,3.2109829185379137,0.34970447477244654,0.7318043324839805
0.23134529467498388,0.012848612953918103,7.52126497316276e-08,2.5881752241279123,0.3125635300225339,0.7247785987999794
0.23385991744319023,0.012731443879256338,5.5876325183544666e-08,1.9946133438096942,0.27936731189936825,0.7177032544092448
0.2363745402113966,0.01261299448607426,4.247564834968774e-08,1.4734317854815822,0.24969685309459488,0.7105491842067008
0.23888916297960294,0.012495277400136883,3.262873151583079e-08,1.0561594179877263,0.2231776842925095,0.7033426886408576
0.2414037857478093,0.012382152731300982,2.5175586486168265e-08,0.7338036829851498,0.1994751082094371,0.6963491109699826
0.24391840851601565,0.012279435448322981,1.9686605700046363e-08,0.4684343257264342,0.17828997554671508,0.6901461102655989
0.246433031284222,0.012190669606258232,1.567240890793047e-08,0.25007762831147634,0.1593549095263676,0.6850956756208324
0.24894765405242836,0.012114123425294252,1.257680278539822e-08,0.10000221811025643,0.14243093133390547,0.6809575758605272
0.2514622768206347,0.012110481419547117,1.0683358126745571e-07,0.48318055039412977,0.12730444397118837,0.6773783641050558
0.25193163375126093,0.012137494731523101,1.0518906560513201e-07,0.8599835240742967,0.12466437764794773,0.6773783641026968
0.25240099068188715,0.012165786210881987,1.0438562297030471e-07,0.8532806944258763,0.12207906588807729,0.6795323104440004
0.25287034761251337,0.01219705172833571,1.0369438450875843e-07,0.8477015125068365,0.11954737310721729,0.6819041591656676
0.2533397045431396,0.012231168100990612,1.0310450261691648e-07,0.8431469762890513,0.1170681872577486,0.6844850883948012
0.2538090614737658,0.012268019494805653,1.0260701537317199e-07,0.8395149308226229,0.11464041935553544,0.6872668562001374
0.254278418404392,0.012307497294251091,1.0219450305912532e-07,0.8367065988816921,0.11226300300163124,0.6902417575044635
0.25474777533501825,0.012349499723378031,1.0186081427098061e-07,0.834629573150442,0.10993489391389696,0.6934025790311777
0.25521713226564446,0.012393931370664125,1.0160084731699452e-07,0.8331989962410179,0.10765506946832784,0.6967425558858453
0.2556864891962707,0.012440702690137305,1.0141037524937927e-07,0.8323378016477302,0.10542252824988911,0.7002553311765651
0.2561558461268969,0.012489729513625503,1.0128590533427334e-07,0.8319764737149785,0.10323628961266232,0.7039349191147394
0.2566252030575231,0.012540932590410449,1.0122456578513233e-07,0.8320525732413651,0.10109539324911278,0.7077756716067706
0.25709455998814934,0.012594237161110255,1.0122401417884981e-07,0.832510163446042,0.0989988987682869,0.7117722481569336
0.25756391691877556,0.012649572567721475,1.0128236320911244e-07,0.8332992099975174,0.09694588528275624,0.715919588824784
0.2580332738494018,0.01270687189922256,1.0139812038317634e-07,0.8343749947548553,0.09493545100412652,0.7202128899581011
0.258502630780028,0.012766071670874726,1.0157013900136492e-07,0.8356975635789213,0.09296671284693477,0.7246475824261923
0.2589719877106542,0.012827111534777879,1.0179757832488273e-07,0.8372312175621459,0.09103880604076024,0.7292193120943814
0.25944134464128044,0.012889934019038022,1.0207987127687249e-07,0.8389440507617844,0.08915088375037952,0.7339239223014994
0.25991070157190665,0.012954484292907662,1.0241669836426408e-07,0.840807534018107,0.0873021167037986,0.7387574381246067
0.2603800585025329,0.013020709955375062,1.0280796677671922e-07,0.8427961425565925,0.08549169282799918,0.7437160522371149
0.2608494154331591,0.01308856084484703,1.0325379383110457e-07,0.8448870241461678,0.08371881689223928,0.7487961121871147
0.2613187723637853,0.013157988867761372,1.0375449409847143e-07,0.8470597042188521,0.08198271015875098,0.7539941089416431
0.26178812929441153,0.013228947844161171,1.0431056968539708e-07,0.8492958243133205,0.08028261004068277,0.759306666559755
0.26225748622503775,0.013301393368453526,1.0492270325031777e-07,0.851578910342528,0.07861776976713558,0.7647305328726215
0.26272684315566397,0.013375282683754867,1.0559175342397782e-07,0.8538941674180508,0.07698745805514598,0.770262571062567
0.2631962000862902,0.013450574568391108,1.0631875237582894e-07,0.856228298238494,0.07539095878847221,0.7758997520451348
0.2636655570169164,0.01352722923327248,1.0710490532865725e-07,0.8585693423360283,0.07382757070304244,0.7816391475690521
0.2641349139475426,0.013605208229000024,1.0795159187464544e-07,0.8609065337556177,0.07229660707892614,0.7874779239585082
0.26460427087816885,0.013684474361684594,1.0886036898969801e-07,0.8632301750064006,0.07079739543869439,0.7934133364306237
0.26507362780879506,0.013764991616569433,1.0983297568093463e-07,0.8655315253688046,0.06932927725203614,0.7994427239284314
0.2655429847394213,0.013846725088646723,1.1087133923623354e-07,0.8678027018628076,0.0678916076465008,0.8055635044163132
0.2660123416700475,0.013929640919546397,1.1197758307580096e-07,0.8700365913820464,0.06648375512424001,0.8117731705906673
0.2664816986006737,0.01401370624005413,1.1315403623497073e-07,0.872226772676162,0.06510510128462439,0.81806928596375
0.26695105553129994,0.014098889117685032,1.1440324453572472e-07,0.874367447021538,0.06375504055261336,0.8244494812831974
0.26742041246192616,0.014185158508801775,1.1572798353257822e-07,0.876453376559957,0.06243297991275872,0.8309114512537954
0.2678897693925524,0.014272484214820764,1.1713127334729263e-07,0.8784798294075179,0.06113833864872537,0.8374529515316329
0.2683591263231786,0.014360836842099132,1.1861639553711645e-07,0.8804425307443667,0.059870548088214424,0.844071795963976
0.2688284832538048,0.014450187765138503,1.2018691217370622e-07,0.8823376191907161,0.05862905135317714,0.8507658540509953
0.26929784018443104,0.01454050909278029,1.218466873453782e-07,0.8841616078580329,0.0574133031152096,0.8575330486080008
0.26976719711505726,0.014631773637101544,1.235999113347952e-07,0.8859113495375379,0.05622276935602104,0.8643713536090567
0.2702365540456835,0.014723954884750746,1.2545112776863419e-07,0.8875840055523329,0.05505692713287056,0.8712787921948196
0.2707059109763097,0.014817026970490192,1.274052640863836e-07,0.8891770178558187,0.05391526434886887,0.8782534348292127
0.2711752679069359,0.014910964652735706,1.294676657335631e-07,0.8906880840085852,0.05279727952804519,0.8852933975911081
0.27164462483756213,0.015005743290905761,1.3164413455196698e-07,0.8921151347092795,0.051702481595079355,0.8923968405885844
0.27211398176818835,0.015101338824411429,1.3394097191795763e-07,0.8934563135931858,0.0506303896596034,0.8995619664845735
0.27258333869881457,0.015197727753135444,1.3636502727172474e-07,0.8947099590456348,0.04958053280497729,0.9067870191238222
0.2730526956294408,0.015294887119263963,1.3892375278862357e-07,0.8958745878069343,0.048552449881446864,0.9140702822520782
0.273522052560067,0.015392794490348178,1.4162526507171318e-07,0.8969488801712967,0.04754568930359224,0.9214100783193089
0.2739914094906932,0.015491427943484945,1.444784148967079e-07,0.8979316666051125,0.046559808851978975,0.9288047673595405
0.27446076642131945,0.015590766050516588,1.4749286622203137e-07,0.8988219156299859,0.045594375478923796,0.9362527459406239
0.27493012335194567,0.015690787864159568,1.5067918589411102e-07,0.8996187228336102,0.04464896511829081,0.9437524461778656
0.2753994802825719,0.01579147290498054,1.540489457396698e-07,0.9003213008871969,0.0437231624992343,0.9513023348060398
0.2758688372131981,0.01589280114914592,1.5761483905287963e-07,0.9009289704619233,0.04281656096380635,0.9589009123047946
0.2763381941438243,0.015994753016878135,1.6139081386881964e-07,0.9014411519490296,0.041928762288349866,0.9665467120729401
0.27680755107445054,0.016097309361558045,1.6539222588220157e-07,0.9018573578989401,0.04105937650859875,0.9742382996475121
0.27727690800507676,0.016200451459418484,1.696360144427688e-07,0.9021771861042603,0.040208021748408325,0.9819742719638799
0.277746264935703,0.016304160999779074,1.7414090576302938e-07,0.9024003132599357,0.03937432405204181,0.9897532566534991
0.2782156218663292,0.016408420075574772,1.7892764827963124e-07,0.9025264858404302,0.03855791721993924,0.9975739113762128
0.2786849787969554,0.016513211170930322,1.840192847752056e-07,0.9025554641568528,0.037758442647897385,1.0054349231457194
0.27915433572758164,0.01661851714943107,1.894414698439779e-07,0.9024870339713945,0.03697554916959075,1.0133350073968805
0.27962369265820786,0.01672432125603987,1.9522284593945374e-07,0.9023211331734297,0.036208892902365196,1.0212729075482299
0.2800930495888341,0.016830607107005652,2.0139548423109803e-07,0.9020577590612826,0.035458137096237616,1.0292473946709155
0.2805624065194603,0.01693735868223946,2.079954049361452e-07,0.9016969588369753,0.03472295198603649,1.0372572669604225
0.2810317634500865,0.017044560318278723,2.1506319525759595e-07,0.9012388259925225,0.03400301464661978,1.0453013492252552
0.28150112038071273,0.01715219670152441,2.2264474693820275e-07,0.9006834969452288,0.03329800885110841,1.0533784923948455
0.28197047731133895,0.017260252861729147,2.3079214129130893e-07,0.9000311478988957,0.03260762493207525,1.0614875730451727
0.28243983424196517,0.017368714165716594,2.395647172384038e-07,0.899281991910371,0.03193155964563144,1.0696274929407168
0.2829091911725914,0.01747756631131353,2.4903036801107274e-07,0.8984362761430976,0.0312695160383536,1.0777971785914588
0.2833785481032176,0.017586795321478096,2.5926712566988434e-07,0.8974942792913153,0.030621203316997914,1.085995580823768
