Time [s],Lmtc [m],STIM [ ],Fsee [N],Gamma [ ],Lcerel [ ]
0.0,0.018827742149310406,0.9999999631490716,2.55010253769521,0.11802941607714006,1.173420348384027
0.0011791333862951237,0.018832991356871158,0.9999999567393318,3.4237869612280174,0.14270622806356675,1.1716026558790595
0.0023582667725902473,0.01882305104500589,0.9999999475558696,4.197463557387882,0.16669260292598134,1.169125577339445
0.003537400158885371,0.018802739787494922,0.9999999359067803,4.846094375059461,0.19000785845079812,1.1662702229107746
0.004716533545180495,0.01877505956455964,0.9999999220413287,5.3689403175857935,0.21267077193724315,1.1631840528119846
0.005895666931475618,0.01874217470685554,0.9999999061943692,5.783512926643028,0.23469959531809687,1.1599510368758963
0.007074800317770741,0.018705628228607513,0.9999998885914095,6.1121607244920115,0.25611206985861285,1.156621438366183
0.008253933704065864,0.01866649705409627,0.9999998694463701,6.375185304195335,0.27692544044431416,1.153226650726885
0.009433067090360988,0.018625526323143248,0.999999848958022,6.588816946129389,0.29715646946896696,1.149787040322819
0.010612200476656111,0.018583232581365232,0.9999998273071646,6.765319120003396,0.31682145033387943,1.1463162639384514
0.011791333862951234,0.018539976857545687,0.999999804654986,6.9137328816007635,0.33593622056942357,1.1428237437277668
0.012970467249246357,0.018496014424890083,0.9999997811424705,7.040669461695303,0.35451617458938106,1.139316138240259
0.01414960063554148,0.018451528140884188,0.9999997568905861,7.150966764102241,0.37257627608841587,1.1357982477386261
0.015328734021836604,0.018406650749534337,0.9999997320009849,7.248185846444694,0.39013107009268194,1.132273589334467
0.01650786740813173,0.018361479855139376,0.999999706557006,7.334969892159851,0.4071946946732844,1.1287447736791563
0.017687000794426852,0.018316088079366296,0.9999996806248168,7.413299959987599,0.4237808923320357,1.1252137577602443
0.018866134180721975,0.018270530037587166,0.999999654254582,7.4846764559550545,0.4399030210686773,1.121682018546624
0.0200452675670171,0.018224847181386512,0.9999996274815783,7.550247454852179,0.45557406513848714,1.1181506749132737
0.021224400953312222,0.018179071199791133,0.9999996003272027,7.610899849855151,0.47080664550892326,1.1146205745740343
0.022403534339607345,0.01813322645750386,0.9999995727998382,7.6673256060813335,0.48561303002373407,1.1110923568035131
0.023582667725902468,0.01808733176940791,0.9999995448955578,7.7200702905813445,0.5000051432827024,1.1075664987672058
0.02476180111219759,0.01804140169619675,0.9999995165986508,7.769568172020925,0.5139945762449878,1.1040433505488993
0.025940934498492715,0.017995447500210125,0.9999994878819609,7.816167882089991,0.5275925955637863,1.1005231617693716
0.027120067884787838,0.017949477860099615,0.9999994587070242,7.860151513237075,0.5408101526598258,1.0970061018977892
0.02829920127108296,0.017903499411887343,0.9999994290239959,7.90174903255597,0.5536578925409948,1.093492275881442
0.029478334657378084,0.017857517164713045,0.9999993987713499,7.941149347801161,0.5661461623752044,1.0899817363043647
0.030657468043673208,0.017811534096600523,0.999999367875332,7.978473539099761,0.578285019823378,1.0864744930006345
0.03183660142996833,0.017765550625659175,0.9999993362491388,8.013743043630756,0.5900842411392786,1.0829705207588307
0.03301573481626346,0.01771956841312535,0.9999993037917866,8.047059889765936,0.6015533290426848,1.0794697655089818
0.034194868202558584,0.01767358857402085,0.9999992703866207,8.078516739153027,0.6127015203722499,1.075972149287412
0.03537400158885371,0.01762761164085204,0.9999992358994026,8.108192250817783,0.6235377935241996,1.072477574241826
0.03655313497514884,0.017581637662771023,0.9999992001758882,8.136153558525965,0.6340708756828473,1.0689859258889192
0.037732268361443964,0.01753566628553912,0.9999991630387883,8.162458248526134,0.6443092498487357,1.065497075782208
0.03891140174773909,0.017489696816233455,0.9999991242839659,8.187155942304084,0.6542611616700563,1.0620108837044724
0.04009053513403422,0.017443728275890344,0.9999990836756754,8.210289574481235,0.6639346260828197,1.0585271994709855
0.041269668520329345,0.017397759442623662,0.9999990409405906,8.231896436419902,0.6733374337651095,1.055045864414633
0.04244880190662447,0.017351788887093912,0.9999989957602761,8.25200903253992,0.6824771574105847,1.0515667126132593
0.0436279352929196,0.017305815001723505,0.9999989477616407,8.270655782600924,0.6913611578262409,1.048089571906628
0.044807068679214725,0.017259836024767744,0.9999988965047356,8.287861598016995,0.6999965898592979,1.0446142647383636
0.04598620206550985,0.017213850060185058,0.9999988414670252,8.3036483582412,0.7083904081579134,1.0411406088501134
0.04716533545180498,0.017167855094159277,0.9999987820228976,8.318035312059163,0.7165493727702782,1.0376684178511524
0.048344468838100105,0.017121849009020067,0.9999987174166736,8.3310394242548,0.7244800545864782,1.0341975016860359
0.04952360222439523,0.017075829595064585,0.9999986467265874,8.342675676542532,0.7321888406273466,1.0307276670227288
0.05070273561069036,0.017029794560268548,0.9999985688160319,8.352957309360418,0.7396819391843258,1.02725871757904
0.051881868996985485,0.016983741537957335,0.9999984822664978,8.361896005943002,0.7469653848141579,1.0237904543891516
0.05306100238328061,0.016937668092906255,0.9999983852836769,8.369502043752485,0.7540450431919522,1.020322676006528
0.05424013576957574,0.01689157172535343,0.999998275563314,8.3757843829678,0.7609266158258409,1.0168551786493825
0.055419269155870865,0.01684544988865441,0.9999981500951584,8.380751485300191,0.7676156446359674,1.013387756272449
0.05659840254216599,0.01679929995523768,0.9999980048688981,8.384409309292863,0.7741175163998746,1.0099202010194037
0.05777753592846112,0.016753119264945587,0.9999978344197545,8.386764264873209,0.7804374670652875,1.0064523023834573
0.058956669314756245,0.01670690509991963,0.9999976311015863,8.387821396090871,0.7865805859295125,1.0029838480525661
0.06013580270105137,0.01666065543189433,0.999997383876919,8.387621795831807,0.7925518196815639,0.99951462359814
0.0613149360873465,0.01661436585739528,0.9999970762080233,8.386074176168252,0.7983559762973425,0.9960444362827878
0.062494069473641625,0.016568032630099216,0.9999966821354012,8.383081669097885,0.8039977287668207,0.9925731515942785
0.06367320285993675,0.01652165410727667,0.9999961584359165,8.378647026776274,0.809481618607231,0.9891006433173907
0.06485233624623186,0.016475228592480934,0.9999954274023217,8.37277172605029,0.8148120590585434,0.9856267836891695
0.06603146963252698,0.01642875436023369,0.9999943338755264,8.365457480101972,0.8199933377077329,0.9821514429734208
0.0672106030188221,0.016382229666478808,0.999992516707802,8.356706461574758,0.8250296178374316,0.9786744899082845
0.06838973640511722,0.01633565266009791,0.9999888970778497,8.346516538876088,0.8299249361405222,0.9751957922615708
0.06956886979141234,0.016289021518143734,0.9999781358156663,8.334889538952169,0.8346831861823035,0.9717152145131845
0.07074800317770746,0.01624235151746131,0.5907596284408417,8.322676320872421,0.8393080032052109,0.9682326204670567
0.07192713656400258,0.016195520005007513,1.0328976759864637e-05,8.303553851742244,0.8265603764655232,0.9647483825248837
0.0731062699502977,0.016148350003538044,4.521044918540905e-06,8.267865950985717,0.7841678341304757,0.9612639076603283
0.07428540333659282,0.01610108259875172,2.6099089119852793e-06,8.22682174007093,0.7439492716773823,0.9577803888204728
0.07546453672288794,0.01605370723462292,1.6874119531959697e-06,8.1797088718329,0.7057933873719611,0.9542981826901122
0.07664367010918306,0.016006212063398372,1.1600901426681018e-06,8.125704035682016,0.6695944388966432,0.9508177420063958
0.07782280349547818,0.015958583870474632,8.286254909189994e-07,8.063863245740345,0.6352520769302379,0.9473396331496063
0.0790019368817733,0.015910808061963513,6.073549121919122e-07,7.993114901583868,0.6026710887609026,0.9438645568842298
0.08018107026806842,0.01586286872316367,4.534618444252781e-07,7.912255995748139,0.5717611406629847,0.9403933729722996
0.08136020365436354,0.01581474881356651,3.432361692292668e-07,7.819955242148098,0.5424365298554735,0.9369271285274736
0.08253933704065866,0.01576643060493926,2.625404856864631e-07,7.7147682251185845,0.5146159479646952,0.9334670908496175
0.08371847042695378,0.01571789635070203,2.0246379683429895e-07,7.595162940013763,0.4882222561298377,0.9300147868348602
0.0848976038132489,0.015669129328785447,1.571432708218307e-07,7.459563356015041,0.4631822714202054,0.9265720477918239
0.08607673719954402,0.01562011540760051,1.2258907393209572e-07,7.306416806085511,0.4394265640952339,0.9231410607329033
0.08725587058583914,0.015570845198832022,9.601175342310804e-08,7.134285138825376,0.4168892652025957,0.919724428476355
0.08843500397213426,0.015521316788116095,7.541813581712876e-08,6.941956287405898,0.3955078840099386,0.9163252389268249
0.08961413735842938,0.015471539391076641,5.935853416882203e-08,6.728589413220647,0.3752231347796708,0.9129471407489136
0.0907932707447245,0.015421537642553919,4.676311750690613e-08,6.493868567880241,0.3559787724153566,0.9095944332975197
0.09197240413101962,0.015371356366889626,3.6832868432677863e-08,6.238152729849661,0.3377214365292761,0.9062721668761825
0.09315153751731474,0.015321065989597808,2.8965086288225545e-08,5.962622136246185,0.3204005035020362,0.9029862496907879
0.09433067090360986,0.01527076751404107,2.270138689139179e-08,5.669359192625284,0.3039679461260996,0.8997435729923715
0.09550980428990498,0.015220597430580431,1.7690728639120103e-08,5.361385073299102,0.28837820044541046,0.8965521377138679
0.0966889376762001,0.015170731242628613,1.3662695008647161e-08,5.042586640696421,0.273588039422808,0.8934212028588198
0.09786807106249522,0.01512138547938909,1.040791014629368e-08,4.717548448900205,0.25955645308556113,0.8903614420330515
0.09904720444879034,0.015072818889997598,7.763508248121965e-09,4.3913291089200035,0.24624453481713354,0.8873851174434417
0.10022633783508546,0.015025332546265464,5.602249343887568e-09,4.069163950764314,0.23361537348020284,0.8845063300047099
0.10140547122138058,0.014979270679823017,3.82434183386329e-09,3.7561618991347467,0.22163395107204076,0.8817414002705379
0.1025846046076757,0.014935023979193007,2.3513695548595523e-09,3.457015538510591,0.2102670456286435,0.8791095158001778
0.10376373799397082,0.014893035538329545,1.1219298196585631e-09,3.175691679063586,0.1994831391085156,0.8766337871274046
0.10494287138026594,0.014853806244908894,8.861556279416224e-11,2.9150686826215875,0.18925233000079394,0.8743426324690061
0.10612200476656106,0.014817888969806292,-7.842416306122112e-10,2.6765272160750837,0.1795462504154711,0.8722707739314467
0.10730113815285618,0.01478585327926956,-1.5229661215977712e-09,2.4596854130603445,0.17033798742587716,0.8704580207778767
0.1084802715391513,0.01475820331777741,-2.147820294831104e-09,2.262643835293659,0.16160200844531541,0.8689433719845361
0.10965940492544642,0.014735253735514818,-2.6767573705275537e-09,2.082902714302758,0.15331409043089994,0.8677538687685469
0.11083853831174154,0.014717011961759317,-3.1278646984200795e-09,1.9184510458913213,0.14545125271827547,0.866892775017412
0.11201767169803666,0.01470314281864145,-3.519169720564884e-09,1.7682133362348498,0.13799169330106287,0.8663352275704947
0.11319680508433178,0.014693051525225282,-3.866681540444752e-09,1.6316964023308265,0.13091472837848853,0.8660351107232348
0.1143759384706269,0.014684122737299198,-4.184354834366117e-09,1.4682740131954846,0.12420073500366453,0.8659381842761923
0.11555507185692201,0.014674219176107556,-4.482634897849663e-09,1.269185247196611,0.11783109667339257,0.8659381724032952
0.11673420524321713,0.014664983507308132,-4.765616148558678e-09,1.0965859212794602,0.11178815170869554,0.8659381687738014
0.11791333862951225,0.014656401944194285,1.3969671494788608e-08,0.947511695223597,0.10605514428301356,0.8659381665101136
0.11816277667178855,0.014678385692557631,1.3738208418603695e-08,1.3511798376646948,0.10488056427842739,0.865938166510114
0.11841221471406485,0.014682632650898525,1.3553703765555251e-08,1.3496431989661215,0.10371899418680211,0.8662625309621811
0.11866165275634115,0.014688120596830556,1.3393159964236511e-08,1.343691412422548,0.10257028990790015,0.8666965981084988
0.11891109079861745,0.01469501720301279,1.3255813965316552e-08,1.3353413975082122,0.1014343089373163,0.8672454391942839
0.11916052884089375,0.014703392766711107,1.3140331468372167e-08,1.3258658601138686,0.10031091034904797,0.8679095899032262
0.11940996688317004,0.01471326499898652,1.3045271249163184e-08,1.315993284933811,0.09919995477800657,0.8686876548190552
0.11965940492544634,0.014724625429092787,1.2969262542283927e-08,1.30613571280333,0.09810130440272684,0.8695774438821515
0.11990884296772264,0.014737452587948442,1.2911063575319269e-08,1.296527016063277,0.09701482292827024,0.8705764513436585
0.12015828100999894,0.014751718559907858,1.286957462263607e-08,1.287298952764573,0.09594037556931821,0.8716820673460748
0.12040771905227524,0.014767392353468647,1.2843833947958765e-08,1.2785230857219978,0.09487782903345286,0.8728916765669774
0.12065715709455153,0.014784441705075427,1.283300774827962e-08,1.2702345497967231,0.09382705150462305,0.8742027059895432
0.12090659513682783,0.014802834076906218,1.2836378578773096e-08,1.2624459863224862,0.09278791262679276,0.875612648274268
0.12115603317910413,0.014822537221221685,1.285333407368183e-08,1.2551559769198057,0.09176028348777117,0.877119072784486
0.12140547122138043,0.01484351950204589,1.2883356660917905e-08,1.248354293949691,0.09074403660322154,0.8787196300881419
0.12165490926365673,0.01486575007618338,1.2926014487191041e-08,1.242025247324053,0.08973904590084696,0.8804120529053889
0.12190434730593303,0.014889198990389263,1.2980953564008863e-08,1.2361498603399241,0.08874518670475105,0.8821941550841842
0.12215378534820932,0.014913837227360702,1.3047891059420234e-08,1.2307073028448312,0.08776233571997219,0.8840638294884033
0.12240322339048562,0.014939636720080696,1.3126609632002508e-08,1.2256758474166227,0.08679037101718873,0.8860190452897064
0.12265266143276192,0.014966570346239697,1.3216952698579675e-08,1.2210335049321035,0.08582917201759356,0.888057844970797
0.12290209947503822,0.014994611910166385,1.3318820534730681e-08,1.2167584504123135,0.08487861947793601,0.8901783411878921
0.12315153751731452,0.015023736117473863,1.3432167125325712e-08,1.2128293119533304,0.08393859547572985,0.892378713612508
0.12340097555959081,0.015053918545290472,1.3556997690086958e-08,1.2092253524360632,0.08300898339462455,0.8946572058610825
0.12365041360186711,0.015085135609747478,1.3693366817171037e-08,1.2059265804670236,0.08208966790993893,0.8970121225005342
0.12389985164414341,0.015117364532368392,1.3841377157711376e-08,1.2029138201843061,0.08118053497435479,0.8994418261396094
0.12414928968641971,0.015150583306949527,1.400117865152814e-08,1.2001687568778712,0.0802814718037692,0.9019447346600047
0.124398727728696,0.015184770662457301,1.417296820747276e-08,1.1976738588790559,0.07939236686330325,0.9045193186495087
0.1246481657709723,0.015219906033425205,1.435698990509365e-08,1.1954125472378982,0.07851310985346593,0.9071640984193816
0.1248976038132486,0.01525596952842563,1.4553535676689478e-08,1.1933690254658451,0.07764359169647111,0.9098776422392535
0.12514704185552492,0.015292941897894482,1.4762946399870726e-08,1.191528307810426,0.0767837045227065,0.9126585637413813
0.12539647989780123,0.015330804504788634,1.4985613489849224e-08,1.1898761893632694,0.07593334165735173,0.9155055197765238
0.12564591794007754,0.015369539296291262,1.522198097630993e-08,1.188399209677663,0.07509239760714549,0.9184172083814834
0.12589535598235385,0.015409128776701772,1.5472548088902408e-08,1.1870846191225581,0.07426076804729878,0.921392366831109
0.12614479402463016,0.015449555981597508,1.5737872386198638e-08,1.1859203440546027,0.07343834980855315,0.9244297697963364
0.12639423206690648,0.015490804453213686,1.6018573470354784e-08,1.1848949519434953,0.07262504086438265,0.9275282275991406
0.1266436701091828,0.01553285821701787,1.6315337341059668e-08,1.183997617431716,0.07182074031833711,0.9306865845581568
0.1268931081514591,0.015575701759436662,1.6628921454540773e-08,1.1832180891657555,0.07102534839152604,0.9339037174219291
0.1271425461937354,0.015619320006774665,1.696016056815492e-08,1.1825466595198153,0.07023876641024102,0.9371785338838237
0.12739198423601172,0.015663698304939133,1.7309973462911055e-08,1.1819741283871925,0.06946089679371535,0.9405099711845735
0.12764142227828804,0.01570882240037503,1.767937066118588e-08,1.1814917808296763,0.06869164304201936,0.9438969947530407
0.12789086032056435,0.015754678421933024,1.8069463277094467e-08,1.1810913550136521,0.06793090972408973,0.9473385969585802
0.12814029836284066,0.01580125286339022,1.8481473156145892e-08,1.180765013471402,0.06717860246589155,0.9508337959013793
0.12838973640511697,0.01584853256720835,1.8916744505845602e-08,1.1805053264740049,0.06643462793871185,0.9543816342490558
0.12863917444739328,0.01589650470909166,1.9376757247764844e-08,1.1803052436319545,0.06569889384758251,0.9579811781823073
0.1288886124896696,0.01594515678316031,1.9863142362414365e-08,1.1801580715408566,0.06497130891983195,0.9616315163640542
0.1291380505319459,0.015994476588044995,2.037769956492961e-08,1.1800574565592492,0.06425178289376356,0.9653317589584556
0.12938748857422222,0.016044452213611823,2.0922417709919877e-08,1.179997362053808,0.0635402265074597,0.9690810367206351
0.12963692661649853,0.01609507202825386,2.1499498406016488e-08,1.179972050089956,0.06283655148771011,0.9728785001121115
0.12988636465877484,0.016146324666557278,2.2111383424414433e-08,1.1799760594915634,0.062140670539063095,0.9767233184598264
0.13013580270105116,0.01619819901658819,2.276078660097603e-08,1.180004174095204,0.061452497332998283,0.9806146791268875
0.13038524074332747,0.016250684209739356,2.3450731143789944e-08,1.180051453332397,0.06077194649721973,0.9845517866256979
0.13063467878560378,0.01630376961159377,2.4184593426374032e-08,1.1801132019386238,0.060098933605067954,0.9885338620524532
0.1308841168278801,0.016357444811941173,2.4966154544067463e-08,1.180184940669783,0.05943337516504978,0.9925601424545556
0.1311335548701564,0.016411699615559598,2.579966130679091e-08,1.180262408078318,0.058775188610484634,0.9966298801311119
0.13138299291243272,0.016466524033077422,2.6689898713594497e-08,1.180341534055622,0.05812429228926646,1.0007423420532304
0.13163243095470903,0.01652190826914436,2.7642276393758074e-08,1.1804183768045864,0.05748060545373939,1.0048968092295996
0.13188186899698534,0.016577842718150937,2.8662932598092086e-08,1.1804891995902114,0.05684404825068692,1.0090925760772862
0.13213130703926165,0.016634317956120758,2.9758859852990818e-08,1.180550454105467,0.056214541711432926,1.0133289498807005
0.13238074508153796,0.016691324730813584,3.0938057521199004e-08,1.1805987346688145,0.055592007742053876,1.0176052502336435
0.13263018312381428,0.01674885395808432,3.2209718477576047e-08,1.1806308578981617,0.054976369113700824,1.021920808446981
0.1328796211660906,0.016806896711296995,3.3584458889911315e-08,1.180643670836615,0.05436754945303097,1.0262749675258032
0.1331290592083669,0.016865444211421273,3.50746032092194e-08,1.180634151819404,0.05376547323274757,1.0306670810224414
0.1333784972506432,0.016924487826528126,3.6694540960593276e-08,1.1805995132137406,0.05317006576224808,1.0350965125871863
0.13362793529291953,0.01698401906528899,3.846117683584881e-08,1.1805370180368921,0.05258125317837933,1.039562636218065
0.13387737333519584,0.01704402956780351,4.039450372425658e-08,1.1804440168949586,0.051998962436300485,1.0440648354256508
0.13412681137747215,0.017104511104670896,4.251834033715614e-08,1.1803180672825149,0.051423121300453456,1.0486025026855859
0.13437624941974846,0.017165455574445182,4.486129100390202e-08,1.1801568252058292,0.05085365833564151,1.0531750396840824
0.13462568746202477,0.017226854998552366,4.745800953820657e-08,1.17995804590929,0.05029050289821717,1.0577818569349624
