Time [s],Lmtc [m],STIM [ ],Fsee [N],Gamma [ ],Lcerel [ ]
0.0,0.020659786404725423,0.9999998237173502,1.2294144835117495,0.06602926419500155,1.3151144979791056
0.0023123387822970316,0.020703901856836106,0.9999997894620699,2.2143304320517996,0.1165856428239572,1.3151144979674225
0.004624677564594063,0.02065712696136494,0.9999996731775789,3.4347174535741387,0.16440537293030597,1.308418628506533
0.006937016346891095,0.020583246782417845,0.9999995125584678,4.229643638609927,0.20963658647646782,1.301102309353268
0.009249355129188126,0.020497802892028925,0.9999993210214911,4.743902833907462,0.25241939899455934,1.2936328863496083
0.011561693911485158,0.02040780839362573,0.9999991111858306,5.11125853666465,0.2928863422063448,1.2861596118412948
0.01387403269378219,0.020316231114285318,0.9999988933855448,5.400778839971715,0.33116277449620257,1.2787387185695192
0.016186371476079223,0.020224368945587726,0.999998675460115,5.645763104391592,0.3673672690844252,1.2713926495868593
0.018498710258376252,0.02013281531017672,0.9999984630310239,5.862855634193628,0.40161198117713176,1.2641296880451327
0.020811049040673282,0.020041846868957942,0.9999982599203812,6.060889173783297,0.4340029952571101,1.256951620425993
0.023123387822970312,0.019951588431843744,0.9999980685649205,6.244852519065068,0.4646406535982593,1.2498571014764834
0.025435726605267342,0.019862088103388402,0.9999978903709843,6.417734742893948,0.49361986701976196,1.2428432612009845
0.027748065387564372,0.019773353780009533,0.9999977259983638,6.581427038465663,0.5210304088381645,1.2359065189160958
0.0300604041698614,0.019685371866806606,0.9999975755783699,6.737187144326017,0.5469571929230221,1.2290430119553908
0.03237274295215843,0.01959811731048585,0.9999974388772255,6.885890386853931,0.57148053671303,1.222248826108992
0.03468508173445546,0.019511559165350564,0.9999973154164177,7.028171507855646,0.5946764100037824,1.2155201195381444
0.03699742051675249,0.019425663757963375,0.9999972045602111,7.164508056942777,0.616616670275016,1.2088531875989623
0.03930975929904952,0.019340396512390882,0.9999971055785843,7.295271231278169,0.6373692852841896,1.202244494169343
0.04162209808134655,0.01925572300536664,0.9999970176919917,7.420757906697418,0.6569985436143454,1.1956906837686387
0.04393443686364358,0.01917160956788883,0.999996940102794,7.541211435668926,0.675565253827316,1.1891885826659299
0.04624677564594061,0.019088023614774453,0.9999968720169692,7.656835531332211,0.6931269328383517,1.182735193774573
0.04855911442823764,0.01900493380906052,0.9999968126587638,7.767803777262327,0.7097379840950895,1.176327688181447
0.05087145321053467,0.018922310125604302,0.9999967612802446,7.874266298750174,0.7254498661123879,1.1699633950148818
0.0531837919928317,0.01884012385333223,0.9999967171671782,7.976354548513239,0.7403112518847821,1.1636397906705236
0.05549613077512873,0.018758347560665356,0.9999966796422849,8.074184812239253,0.7543681796701738,1.1573544879987403
0.05780846955742576,0.018676955039526155,0.9999966480666269,8.167860827080426,0.76766419561168,1.1511052258021641
0.06012080833972279,0.018595921237656445,0.9999966218396845,8.257475773598182,0.7802404886393582,1.1448898588346361
0.06243314712201982,0.018515222185394642,0.999996600398522,8.343113817074515,0.7921360180696205,1.1387063483956323
0.06474548590431685,0.01843483492077325,0.9999965832163334,8.424851319107576,0.8033876342975743,1.132552753554592
0.06705782468661388,0.018354737415323737,0.9999965698005779,8.502757803999764,0.8140301929561353,1.1264272230034815
0.06937016346891091,0.0182749085020198,0.9999965596908534,8.576896739933838,0.8240966628955372,1.1203279875146828
0.07168250225120794,0.018195327806168754,0.9999965524566133,8.647326178165562,0.8336182283177361,1.1142533529695138
0.07399484103350497,0.018115975679656206,0.9999965476948001,8.714099281820786,0.842624385382092,1.1082016939167598
0.076307179815802,0.018036833138688462,0.9999965450274422,8.777264767687083,0.8511430335815995,1.1021714476184317
0.07861951859809903,0.017957881805009443,0.9999965440992463,8.83686727853977,0.8592005621727425,1.0961611085399803
0.08093185738039606,0.017879103850464904,0.9999965445752003,8.892947699312263,0.8668219319267151,1.090169223243618
0.08324419616269309,0.017800479322489727,0.9999965461381927,8.945408573198945,0.8740307524552734,1.0841943856454932
0.08555653494499012,0.017721985654453407,0.9999965484866469,8.993989789409842,0.8808493553507654,1.0782352325999618
0.08786887372728715,0.017643606284782305,0.9999965513321595,9.038715078302038,0.8872988633669153,1.0722904397767654
0.09018121250958418,0.017565325196254998,0.9999965543971272,9.079615455216647,0.8933992558546876,1.0663587177995113
0.09249355129188121,0.017487126669070926,0.9999965574123404,9.116718830152033,0.8991694306559385,1.0604388086162515
0.09480589007417824,0.017408995241548854,0.9999965601145153,9.150050150367688,0.9046272626465988,1.0545294820752271
0.09711822885647527,0.017330915672391062,0.9999965622437306,9.179631523991564,0.9097896591107443,1.0486295326808732
0.0994305676387723,0.01725287290429407,0.9999965635407255,9.205482326793472,0.9146726121170978,1.042737776507032
0.10174290642106933,0.017174852028692636,0.9999965637440097,9.227619293891074,0.919291248060211,1.0368530482459093
0.10405524520336636,0.017096838251430078,0.9999965625867193,9.246056597833165,0.9236598745198019,1.0309741983727276
0.10636758398566339,0.017018816859152748,0.9999965597931453,9.260805914240821,0.9277920245833915,1.0251000904072007
0.10867992276796042,0.016940773186230863,0.9999965550748368,9.271876475966883,0.9317004987695481,1.0192295982539612
0.11099226155025745,0.016862692582010473,0.9999965481261603,9.279275116548801,0.9353974046815876,1.0133616036048596
0.11330460033255448,0.01678456037820234,0.9999965386191649,9.283006303570803,0.938894194514554,1.0074949933866597
0.1156169391148515,0.016706362281752454,0.99999652619795,9.283094455850216,0.9422017005316516,1.0016286572380853
0.11792927789714854,0.016628084540870072,0.9999965104793298,9.279577727953775,0.9453301686200077,0.9957615088172854
0.12024161667944556,0.016549707780843338,0.9999964910518614,9.272015817136547,0.9482892900300779,0.9898927284759952
0.1225539554617426,0.016471222195341022,0.9999964674571498,9.260374330400456,0.9510882313969297,0.9840216369724507
0.12486629424403962,0.016392618439695174,0.9999964391754516,9.244647920089573,0.9537356631354414,0.9781475520104973
0.12717863302633667,0.01631388701983994,0.9999964056114508,9.224829544856474,0.9562397862976737,0.9722697864771678
0.1294909718086337,0.016235018278112717,0.9999963660764863,9.200910458719731,0.9586083579756646,0.9663876474763323
0.13180331059093073,0.01615600237833167,0.9999963197660696,9.172880195848172,0.9608487153281979,0.9605004353368332
0.13411564937322776,0.016076829290081703,0.9999962657311076,9.140726551037336,0.9629677983057658,0.9546074425911417
0.1364279881555248,0.01599748877213335,0.9999962028406196,9.104435555810444,0.9649721711438627,0.9487079529203417
0.13874032693782182,0.015917970354910358,0.9999961297327996,9.06399145004257,0.9668680426908145,0.9428012400609115
0.14105266572011885,0.015838263321912145,0.9999960447498805,9.019376648974234,0.9686612856326012,0.9368865666684502
0.14336500450241588,0.01575835668998708,0.9999959458501224,8.97057170544625,0.9703574546735035,0.9309631831331201
0.1456773432847129,0.01567823918834035,0.9999958304869072,8.917555267153086,0.9719618037278549,0.9250303263411241
0.14798968206700994,0.015597899236146958,0.9999956954395794,8.860304028674769,0.9734793021746514,0.9190872183760691
0.15030202084930697,0.015517324918625345,0.9999955365719032,8.798792678008349,0.9749146502231316,0.9131330651535057
0.152614359631604,0.015436503961409862,0.9999953484791568,8.732993837277336,0.9762722934335338,0.9071670549813219
0.15492669841390103,0.01535542370304074,0.9999951239589074,8.66287799725159,0.977556436432734,0.9011883570379573
0.15723903719619806,0.015274071065367746,0.9999948531932822,8.588413445259107,0.9787710558588025,0.8951961197596147
0.15955137597849509,0.015192432521637975,0.9999945224408253,8.509566186014755,0.9799199125605957,0.8891894691267473
0.16186371476079212,0.015110494062008333,0.9999941118566141,8.426299854827164,0.9810065630661734,0.883167506839073
0.16417605354308915,0.01502824115618896,0.9999935916781072,8.338575622571875,0.9820343703124212,0.8771293083672138
0.16648839232538618,0.014945658712883492,0.9999929151430739,8.24635209173249,0.9830065135874146,0.8710739208677324
0.1688007311076832,0.014862731035645366,0.9999920043287309,8.149585182704545,0.9839259975512444,0.8650003609468498
0.17111306988998023,0.01477944177471392,0.9999907190070934,8.048228009412306,0.9847956600020101,0.8589076122564194
0.17342540867227726,0.014695773874328296,0.9999887788148607,7.942230743061717,0.9856181775355742,0.8527946229038228
0.1757377474545743,0.014611709514936512,0.9999855299025338,7.831540462416846,0.9863960666860028,0.846660302655334
0.17805008623687132,0.014527230049615661,0.999979012469782,7.716100988005114,0.98713167237298,0.8405035199103899
0.18036242501916835,0.014442315933946504,0.9999594484824345,7.595852697898385,0.9878271065002153,0.8343230984232959
0.18267476380146538,0.014356954485473231,0.9019034497157077,7.471100635762068,0.9884838373673558,0.8281178137611721
0.18498710258376241,0.014271143397285434,1.7988212029921535e-05,7.34239172905119,0.979990396119227,0.8218868310135434
0.18729944136605944,0.014184083823013414,7.006522660348788e-06,7.170500331442663,0.8838560674487441,0.8156342574692953
0.18961178014835647,0.014096322596439023,3.538049842469552e-06,6.978318259084256,0.7971514407401815,0.8093658922396333
0.1919241189306535,0.014007751988481627,1.9892235717014276e-06,6.760436352149091,0.7189521991122068,0.8030842635439459
0.19423645771295053,0.013918236427982508,1.1869199588787022e-06,6.510110658773803,0.6484241524612264,0.7967930477679962
0.19654879649524756,0.013827611846300273,7.365641461326474e-07,6.219425139738906,0.5848148296644803,0.7904973617079685
0.1988611352775446,0.01373569359925943,4.710059677184303e-07,5.879968465863438,0.5274455383215582,0.7842040889825079
0.20117347405984162,0.013642300554900483,3.091331905960777e-07,5.484328848242413,0.47570414937064404,0.7779222301788284
0.20348581284213865,0.01354730389184548,2.0801059205214e-07,5.028597439675337,0.42903857566412185,0.7716632672482229
0.20579815162443568,0.013450704856241374,1.4355038012033436e-07,4.515618211341574,0.3869508856009124,0.7654415459197963
0.2081104904067327,0.013352732847173733,1.0168639669298014e-07,3.957905491047789,0.3489919923153661,0.7592747178199841
0.21042282918902974,0.013253938407017642,7.39674334105811e-08,3.378467125713658,0.3147568629910091,0.7531843906030796
0.21273516797132677,0.013155260195132659,5.5202430268923675e-08,2.8083292341454142,0.28388019770840167,0.7471975943477847
0.2150475067536238,0.013058112396499833,4.213524593407084e-08,2.281677419194267,0.2560325319670909,0.741352054448759
0.21735984553592083,0.012964626688665838,3.26972371357248e-08,1.8293885247975898,0.23091672142022013,0.7357174370111368
0.21967218431821786,0.012878020227431496,2.5648470244907186e-08,1.4658268999654758,0.20826477138341123,0.7304580683038253
0.2219845231005149,0.012802643394278437,2.0356782791530192e-08,1.1754452694229012,0.18783497733368237,0.7259075982111213
0.22429686188281192,0.012742733988072031,1.6414889860420372e-08,0.9349074741473237,0.16940934590379625,0.7224366488417738
0.22660920066510895,0.012699287874177427,1.3390009950157447e-08,0.740242599438748,0.15279126883954355,0.7201070102759533
0.22892153944740598,0.012669433358207065,1.0921969624502324e-08,0.5916264546455735,0.1378034251172952,0.7186631971547827
0.231233878229703,0.012659786404725417,9.793799307411626e-08,0.6151524243209285,0.12428588887348165,0.7178073671715722
0.23166457842616167,0.012683036372588798,9.636545448543323e-08,0.9686556832291534,0.12191867394738479,0.717807367169411
0.23209527862262033,0.012698571332212406,9.536170953608667e-08,0.9568566017945817,0.11959654988525764,0.719025221979754
0.232525978819079,0.012717260100449424,9.450814620424829e-08,0.9458819956594453,0.11731865780365244,0.7204762921320743
0.23295667901553765,0.012738991350597053,9.378682222562155e-08,0.9359603996222273,0.1150841551712267,0.7221511366433494
0.23338737921199632,0.012763646513196395,9.318280259522874e-08,0.9271447691324921,0.11289221550489846,0.7240405496690775
0.23381807940845498,0.012791108040707613,9.268369287884345e-08,0.919408164093862,0.11074202806421526,0.7261357674540752
0.23424877960491364,0.012821262678162484,9.2279202675641e-08,0.9126875916603172,0.10863279755153593,0.7284285219025404
0.2346794798013723,0.012854002695789853,9.196077679892704e-08,0.9069052433983281,0.10656374381791431,0.730911038181876
0.23511017999783096,0.01288922622972435,9.172129376098464e-08,0.9019791512304401,0.10453410157457939,0.7335760111945443
0.23554088019428962,0.012926837216622626,9.155482196329702e-08,0.8978285958420453,0.10254312010990416,0.7364165746163979
0.23597158039074828,0.0129667451432526,9.145642302539713e-08,0.8943767950954424,0.10059006301176232,0.739426268243037
0.23640228058720694,0.013008864717159419,9.142199295553106e-08,0.8915521382800643,0.09867420789516858,0.7425990061213191
0.2368329807836656,0.013053115511194075,9.144813354671123e-08,0.8892886293853782,0.09679484613510524,0.7459290465123894
0.23726368098012426,0.013099421608597788,9.153204792846361e-08,0.8875258995164296,0.09495128260443417,0.7494109640751898
0.23769438117658293,0.013147711262008593,9.167145548816397e-08,0.8862089893821066,0.0931428354167995,0.7530396243490747
0.23812508137304159,0.013197916572727751,9.18645223990243e-08,0.8852880160696744,0.09136883567442645,0.7568101604675278
0.23855578156950025,0.0132499731927978,9.210980479399334e-08,0.8847177896443637,0.08962862722072212,0.7607179519685512
0.2389864817659589,0.013303820050388375,9.240620225016593e-08,0.8844574171262632,0.08792156639758782,0.7647586055411784
0.23941718196241757,0.013359399097880193,9.275291973556686e-08,0.8844699150083877,0.08624702180735339,0.7689279375418924
0.23984788215887623,0.01341665508146541,9.31494365508554e-08,0.8847218417631123,0.08460437407924547,0.7732219581193773
0.2402785823553349,0.013475535330813528,9.35954810971806e-08,0.8851829559885547,0.08299301564030342,0.7776368567955806
0.24070928255179355,0.013535989567257045,9.409101053704466e-08,0.8858259023959092,0.08141235049065837,0.782168989362719
0.2411399827482522,0.013597969728954846,9.46361946020701e-08,0.8866259258095438,0.07986179398309252,0.7868148659680625
0.24157068294471087,0.013661429811549844,9.523140295107951e-08,0.8875606121916049,0.07834077260679695,0.7915711402702803
0.24200138314116953,0.013726325722924787,9.587719560233983e-08,0.8886096550771362,0.07684872377524815,0.7964345995624312
0.2424320833376282,0.013792615150760742,9.657431606170718e-08,0.889754645507181,0.07538509561812526,0.80140215576714
0.24286278353408686,0.013860257441707182,9.732368684875309e-08,0.8909788834485075,0.07394934677719023,0.8064708372190498
0.24329348373054552,0.013929213491075667,9.812640718967307e-08,0.8922672087080946,0.07254094620605638,0.8116377811583022
0.24372418392700418,0.013999445642067444,9.89837527019482e-08,0.8936058494386574,0.07115937297377092,0.8169002268665907
0.24415488412346284,0.014070917593637822,9.989717694377711e-08,0.8949822864557196,0.06980411607213857,0.8222555093843571
0.2445855843199215,0.01414359431618533,1.0086831474318941e-07,0.8963851317278783,0.06847467422671559,0.8277010537539673
0.24501628451638016,0.0142174419743321,1.018989872590792e-07,0.8978040195471535,0.06717055571140396,0.8332343697393285
0.24544698471283882,0.014292427856133317,1.0299120876050033e-07,0.8992295090288698,0.06589127816657728,0.8388530469774444
0.24587768490929748,0.014368520308118204,1.0414719514257198e-07,0.900652996725557,0.06463636842067108,0.8445547505218819
0.24630838510575614,0.014445688675623732,1.0536937422827018e-07,0.9020666382653718,0.06340536231517203,0.8503372167421578
0.2467390853022148,0.014523903247934955,1.0666039793612513e-07,0.9034632780407942,0.062197804532940396,0.8561982495466268
0.24716978549867347,0.014603135207793489,1.0802315642529112e-07,0.9048363860784437,0.06101324842980309,0.8621357168996743
0.24760048569513213,0.014683356584878612,1.0946079436245183e-07,0.9061800013153583,0.05985125586935522,0.8681475476068823
0.2480311858915908,0.014764540212903764,1.1097672949046053e-07,0.9074886805921865,0.05871139706090799,0.8742317283444093
0.24846188608804945,0.014846659690005998,1.125746737174356e-07,0.9087574527496022,0.057593250400524126,0.8803863009111249
0.2488925862845081,0.014929689342137025,1.1425865698827598e-07,0.9099817772822111,0.05649640231508172,0.8866093596841055
0.24932328648096677,0.015013604189192347,1.1603305424941871e-07,0.9111575070643654,0.0554204471093085,0.8928990492599426
0.24975398667742543,0.01509837991364018,1.1790261587348923e-07,0.9122808547161142,0.054364986815730675,0.8992535622659774
0.2501846868738841,0.01518399283143445,1.1987250197490966e-07,0.9133483622250338,0.05332963104748032,0.9056711373270678
0.2506153870703428,0.015270419865016278,1.2194832112244737e-07,0.9143568734820214,0.05231399685390712,0.91215005717482
0.2510460872668015,0.01535763851822693,1.2413617404242033e-07,0.9153035094266347,0.05131770857894145,0.9186886468874446
0.2514767874632602,0.015445626852971284,1.2644270300963055e-07,0.9161856455308459,0.050340397722155816,0.9252852722494548
0.2519074876597189,0.015534363467485957,1.2887514774552552e-07,0.9170008913795968,0.04938170280247413,0.9319383382214209
0.25233818785617756,0.015623827476079342,1.314414087888183e-07,0.9177470721327109,0.04844126922447778,0.9386462875108598
0.25276888805263625,0.01571399849022304,1.3415011947809637e-07,0.9184222116760711,0.04751874914725973,0.9454075992361488
0.25319958824909494,0.015804856600884636,1.370107278953646e-07,0.9190245172904906,0.04661380135577808,0.9522207876760437
0.25363028844555363,0.015896382362002054,1.4003359037221173e-07,0.9195523656851536,0.04572609113466149,0.9590844010980607
0.2540609886420123,0.01598855677500813,1.4323007846670767e-07,0.9200042902587483,0.04485529014442033,0.9659970206595428
0.254491688838471,0.016081361274322158,1.466127016923295e-07,0.9203789694659249,0.04400107630001765,0.9729572593757645
0.2549223890349297,0.01617477771373244,1.5019524873686986e-07,0.9206752161796287,0.04316313365175565,0.9799637611499192
0.2553530892313884,0.016268788353600426,1.539929504707637e-07,0.920891967951311,0.04234115226843352,0.9870151998602623
0.2557837894278471,0.016363375848816752,1.5802266873735946e-07,0.9210282779822067,0.04153482812273428,0.9941102785000694
0.25621448962430576,0.016458523236556048,1.623031154310688e-07,0.9210832921922192,0.04074386297879797,1.0012477283653745
0.25664518982076445,0.01655421391964092,1.6685510654488233e-07,0.9210561749122596,0.039967964281940986,1.0084263081465887
0.25707589001722314,0.016650431662460094,1.7170186212430633e-07,0.920946245002629,0.03920684505048051,1.0156448030051386
0.25750659021368183,0.01674716058406751,1.7686935999092002e-07,0.9207529478138285,0.038460223769625504,1.0229020241846098
0.2579372904101405,0.01684438514741483,1.82386752281216e-07,0.920475809251906,0.0377278242873953,1.030196808412894
0.2583679906065992,0.016942090150800674,1.882868597860206e-07,0.9201144303406011,0.03700937571252895,1.0375280172863348
0.2587986908030579,0.01704026071975813,1.9460676169492383e-07,0.9196684821843906,0.03630461231434846,1.0448945366847562
0.2592293909995166,0.017138882299348637,2.0138850290987511e-07,0.9191377012957118,0.0356132734245407,1.0522952762151658
0.2596600911959753,0.01723794064683249,2.0867994717954018e-07,0.9185218852533585,0.03493510334082374,1.059729168682067
0.26009079139243396,0.017337421824688653,2.1653581234087042e-07,0.9178208886623062,0.03426985123246429,1.0671951695824835
0.26052149158889265,0.017437312193958776,2.250189346543694e-07,0.9170346193882215,0.03361727104761457,1.0746922566239467
