Time [s],Lmtc [m],STIM [ ],Fsee [N],Gamma [ ],Lcerel [ ]
0.0,0.017485085259653504,0.9999997078324762,3.299869707881104,0.12456682534129015,1.0707812536695018
0.0005757255727319673,0.017510308742301667,0.9999997119902841,4.134747081866482,0.13661309979135514,1.0707812536666659
0.0011514511454639347,0.017534021254575125,0.9999997160907795,5.005382125534367,0.14849361318658374,1.0707812517367838
0.001727176718195902,0.017555181545139534,0.9999997197844768,5.852492774555907,0.16021064645851177,1.070781247699962
0.0023029022909278694,0.017565754818105156,0.999999719486017,6.308077487898331,0.17176644914741984,1.070768205932537
0.0028786278636598367,0.01757319342951246,0.9999997129558563,6.729060857279846,0.18316323978976184,1.0706067555336003
0.003454353436391804,0.01757789689692461,0.9999997016574288,7.114013460706061,0.19440320636330743,1.0703211597090625
0.004030079009123772,0.017580228515330407,0.9999996864459456,7.463152118210474,0.20548850675859456,1.069931813354529
0.004605804581855739,0.017580510230041233,0.9999996678441564,7.777833962881048,0.21642126918457158,1.0694555837610975
0.005181530154587706,0.017579023845961373,0.9999996461816045,8.06016236397448,0.22720359257245173,1.0689063486137163
0.0057572557273196726,0.01757601404600195,0.9999996216685251,8.312673289483852,0.23783754697592716,1.068295512223939
0.0063329813000516395,0.01757169194609337,0.9999995944370716,8.538091587127466,0.24832517396689202,1.067632455856195
0.006908706872783606,0.01756623881257613,0.9999995645652379,8.739154698075241,0.2586684870262879,1.0669249154215428
0.007484432445515573,0.01755980973197117,0.999999532091103,8.918495207281545,0.2688694719299009,1.0661792916832433
0.00806015801824754,0.017552537085906764,0.9999994970214049,9.078570068470396,0.27893008712904466,1.0654009019640116
0.008635883590979507,0.01754453373720272,0.9999994593366314,9.221624177680734,0.28885226412612436,1.0645941830036718
0.009211609163711474,0.01753589587944281,0.999999418993878,9.349677656724552,0.2986379078451016,1.0637628539160413
0.009787334736443441,0.01752670553775912,0.9999993759281973,9.464528499859517,0.30828889699690204,1.062910046986002
0.010363060309175408,0.017517032732427065,0.9999993300528638,9.56776445231975,0.31780708443981354,1.0620384127460256
0.010938785881907375,0.017506937331012086,0.9999992812588027,9.66077984381538,0.3271942975349266,1.0611502045646768
0.011514511454639342,0.017496470621731746,0.9999992294133117,9.744794529364917,0.33645233849667916,1.0602473469390281
0.012090237027371309,0.017485676642752024,0.9999991743581347,9.820873131574691,0.3455829847385576,1.0593314908211375
0.012665962600103275,0.017474593301189084,0.9999991159068834,9.889943506177666,0.3545879892140155,1.0584040586120593
0.013241688172835242,0.017463253312978214,0.9999990538417645,9.952813842790738,0.36346908075266526,1.0574662809018796
0.01381741374556721,0.01745168499139509,0.9999989879095207,10.010188131520867,0.37222796439179906,1.0565192265959973
0.014393139318299176,0.01743991290843323,0.9999989178164577,10.062679925223128,0.38086632170329204,1.0555638277235384
0.014968864891031143,0.017427958449779915,0.9999988432223728,10.110824445509227,0.38938581111593784,1.0546008999538308
0.01554459046376311,0.01741584028096278,0.9999987637331461,10.15508914563282,0.397788068233266,1.0536311596353547
0.016120316036495077,0.017403574739432427,0.9999986788916772,10.195882874299679,0.4060747061468851,1.052655238005697
0.016696041609227046,0.017391176164918105,0.9999985881667508,10.233563794258812,0.4142473157453869,1.051673693090763
0.017271767181959014,0.017378657178324684,0.9999984909392844,10.268446206840236,0.42230746601884867,1.0506870197088607
0.017847492754690983,0.0173660289176971,0.9999983864852334,10.300806424013691,0.4302567043589556,1.0496956579142784
0.01842321832742295,0.017353301238322263,0.9999982739541846,10.330887816595844,0.4380965568547578,1.0487000001507696
0.01899894390015492,0.01734048288282795,0.9999981523423307,10.358905153115732,0.4458285285840646,1.0477003973343335
0.01957466947288689,0.017327581626136,0.9999980204580453,10.385048329847553,0.45345410390045476,1.046697164043974
0.020150395045618857,0.017314604399298904,0.9999978768775932,10.409485579351397,0.460974746715866,1.0456905829665288
0.020726120618350826,0.017301557395565534,0.9999977198875297,10.432366232877904,0.46839190077868503,1.0446809087154587
0.021301846191082795,0.017288446161458085,0.9999975474088907,10.453823101322442,0.47570698994721866,1.0436683711223549
0.021877571763814763,0.017275275675177598,0.9999973568960958,10.473974530056115,0.4829214184583597,1.0426531780828232
0.022453297336546732,0.017262050414271625,0.9999971452001634,10.492926174842811,0.490036571191163,1.041635518024487
0.0230290229092787,0.01724877441418088,0.999996908380631,10.510772539061591,0.4970538139249142,1.040615562053524
0.02360474848201067,0.017235451319019296,0.9999966414422659,10.527598306469594,0.5039744935910577,1.0395934658268644
0.024180474054742638,0.01722208442572496,0.999996337958981,10.543479498637339,0.5107999385180372,1.0385693711895492
0.024756199627474607,0.01720867672253903,0.9999959895242726,10.558484481847774,0.5175314586675894,1.0375434076104832
0.025331925200206575,0.01719523092261999,0.9999955849270575,10.572674844565585,0.5241703458602271,1.0365156934445994
0.025907650772938544,0.017181749493475548,0.9999951088783174,10.586106163458265,0.5307178739862759,1.03548633704515
0.026483376345670512,0.01716823468279071,0.999994539974404,10.598828673300687,0.5371752991964875,1.0344554377462634
0.02705910191840248,0.017154688541142712,0.9999938473039066,10.610887853848192,0.5435438600620045,1.0334230867328875
0.02763482749113445,0.017141112942021065,0.99999298451257,10.62232494485504,0.5498247776854319,1.0323893678127567
0.02821055306386642,0.01712750959950877,0.9999918787876549,10.633177398790824,0.5560192557287149,1.0313543581028963
0.028786278636598387,0.017113880083929334,0.9999904088435194,10.643479279415144,0.5621284802890536,1.030318128641432
0.029362004209330356,0.017100225835719407,0.9999883565384629,10.653261613160288,0.5681536194736013,1.0292807449339592
0.029937729782062324,0.017086548177749336,0.9999852860836036,10.662552699185598,0.5740958223142538,1.0282422674425284
0.030513455354794293,0.017072848326280744,0.9999801824091776,10.671378382969644,0.5799562160352573,1.0272027520242963
0.03108918092752626,0.017059127400736243,0.9999700096042953,10.679762298031509,0.5857358983822545,1.0261622503263108
0.03166490650025823,0.017045386432760837,0.9999396989389324,10.687726097123523,0.5914359102206893,1.0251208101434903
0.032240632072990195,0.017031681807772227,0.45615061700722553,10.698407035091174,0.5970570707441953,1.0240784757563708
0.03281635764572216,0.017017796629776247,3.08534784060452e-05,10.699032701902613,0.5934810106832487,1.0230360126775782
0.033392083218454126,0.0170035941729245,1.4526378585703488e-05,10.680622722548108,0.5784195319410065,1.0219951489505184
0.03396780879118609,0.01698939416733071,9.076823341987078e-06,10.660320209932554,0.5637398983287681,1.0209570190616606
0.034543534363918056,0.016975197148388885,6.371767104823321e-06,10.637991632150786,0.5494326947067433,1.0199218490810296
0.03511925993665002,0.016961003757288914,4.767660245293605e-06,10.613495476179157,0.5354885384766866,1.0188898852396224
0.035694985509381986,0.016946814763937133,3.714301930072012e-06,10.586682477000872,0.5218982434574009,1.0178613956041513
0.03627071108211395,0.016932631089249504,2.975333544371626e-06,10.557395759284706,0.5086528426485375,1.016836671855497
0.03684643665484592,0.016918453830195756,2.43240738469916e-06,10.525471070899764,0.495743590633018,1.0158160311878712
0.03742216222757788,0.016904284288364126,2.0197199928544098e-06,10.490737148331785,0.48316196094834235,1.0147998183351234
0.03799788780030985,0.01689012400255035,1.6977741371818611e-06,10.453016240133715,0.4708996418630918,1.0137884077286266
0.03857361337304181,0.016875974785835555,1.4414354190721563e-06,10.412124812596252,0.4589485315947077,1.0127822057899556
0.03914933894577378,0.016861838767612627,1.2339540567620111e-06,10.367874461560037,0.44730073334552733,1.0117816533603534
0.03972506451850574,0.016847718441014438,1.0637430578734313e-06,10.320073053865569,0.43594855031307594,1.0107872282674928
0.04030079009123771,0.016833616716179046,9.225358732834771e-07,10.268526120763688,0.4248844807452307,1.0097994480282604
0.04087651566396967,0.016819536979750534,8.042803355288525e-07,10.21303852335518,0.41410121307412473,1.0088188726841032
0.04145224123670164,0.016805483160954586,7.044470206691951e-07,10.153416406519618,0.40359162114548175,1.0078461077628864
0.0420279668094336,0.0167914598044989,6.19581520216892e-07,10.089469452585726,0.3933487595514758,1.0068818073580836
0.04260369238216557,0.016777472150427075,5.470058385654192e-07,10.021013438970659,0.38336585907067977,1.0059266773125204
0.043179417954897534,0.016763526220893558,4.846140133116266e-07,9.947873095011145,0.3736363222161698,1.0049814784896287
0.0437551435276295,0.01674962891362502,4.3072900267626705e-07,9.869885242139972,0.3641537188914302,1.0040470301103608
0.044330869100361464,0.016735788101585273,3.840004311101403e-07,9.78690218845442,0.3549117821528808,1.0031242131283735
0.04490659467309343,0.01672201273806741,3.4333020128300825e-07,9.698795333761062,0.34590440407735445,1.0022139736099545
0.045482320245825394,0.01670831296609847,3.078174970568457e-07,9.6054589247259,0.3371256317325703,1.0013173260783055
0.04605804581855736,0.016694700233438674,2.767175260782208e-07,9.506814029453054,0.3285696632484811,1.0004353567743842
0.046633771391289325,0.016681187418068916,2.4941016453719377e-07,9.402812961868033,0.3202308439872816,0.9995692268168713
0.04720949696402129,0.016667788823084017,2.2537583114544608e-07,9.293436450590473,0.3121036628098262,0.9987201756260562
0.047785222536753255,0.01665452047254369,2.041766995673289e-07,9.178707120906955,0.30418274843619225,0.997889523434226
0.04836094810948522,0.01664140014304496,1.8544194712434083e-07,9.058689243886358,0.29646286589813603,0.9970786729673273
0.048936673682217185,0.016628447432474415,1.6885606402051562e-07,8.933490145539752,0.28893891308121045,0.9962891112282515
0.04951239925494915,0.01661568383471135,1.541495026504535e-07,8.803261993216537,0.2816059173543463,0.995522410777281
0.050088124827681116,0.016603132795874515,1.4109113978646e-07,8.668202767905276,0.27445903228473784,0.994780230367498
0.05066385040041308,0.016590819748187158,1.2948215652770235e-07,8.528556306961573,0.26749353443591306,0.9940643148279222
0.051239575973145046,0.01657877211768754,1.1915103674313923e-07,8.384611327566411,0.2607048202469138,0.9933764940851163
0.05181530154587701,0.01656701930234757,1.0994945527746553e-07,8.236699375089792,0.25408840299055363,0.9927186812150203
0.05239102711860898,0.01655559261767989,1.0174887965633636e-07,8.085191681042224,0.24763990980877237,0.9920928694212222
0.05296675269134094,0.016544525207593887,9.443774845473243e-08,7.930494960019487,0.2413550788231461,0.991501127843825
0.05354247826407291,0.016533851919053794,8.791911941493662e-08,7.773046220615302,0.23522975631866133,0.9909455961137806
0.05411820383680487,0.016523609139905186,8.210870332219624e-08,7.6133067074720735,0.2292598939989035,0.9904284775787714
0.05469392940953684,0.016513834599928393,7.6933217345756e-08,7.451755125666686,0.22344154631086074,0.9899520311339443
0.0552696549822688,0.016504567135536913,7.232900528306784e-08,7.288880319501816,0.21777086783758096,0.9895185615856542
0.05584538055500077,0.016495846418275704,6.824088275671985e-08,7.125173580886809,0.21224411075696814,0.9891304084453062
0.05642110612773273,0.016487712645997573,6.462117343007989e-08,6.9611207438982285,0.2068576223650457,0.9887899329727787
0.0569968317004647,0.016480206192758508,6.142890795905372e-08,6.797194176760665,0.20160784266205425,0.9884995031360031
0.05757255727319666,0.016485085259653507,1.2250223976128662e-07,7.1629483699450756,0.19649130199979378,0.9882614758873641
0.0578618860406997,0.016481384172317173,1.2080141543403304e-07,6.993640533348829,0.19396924007288968,0.9882614758859174
0.05815121480820274,0.016477666064363822,1.1912242451752517e-07,6.8255928228226574,0.191479551689802,0.9882614761901685
0.05844054357570578,0.016473933260242088,1.1746498539339941e-07,6.6589366217580155,0.18902182129914064,0.9882614765044458
0.05872987234320882,0.016470188020329825,1.1582882142271213e-07,6.493795300536555,0.1865956386835923,0.9882614768293296
0.05901920111071186,0.016466432608056643,1.1421365951756466e-07,6.330287433407644,0.18420059889145093,0.9882614771654422
0.059308529878214895,0.01646266928396456,1.126192300955262e-07,6.168526498578788,0.18183630216902794,0.9882614775134528
0.059597858645717934,0.01645890029989208,1.110452670346419e-07,6.008620610880236,0.17950235389392974,0.9882614778740807
0.05988718741322097,0.016455127893313222,1.0949150762901951e-07,5.850672287926734,0.17719836450919138,0.9882614782480993
0.06017651618072401,0.016451354281860724,1.0795769254498797e-07,5.69477825035963,0.17492394945825662,0.9882614786363444
0.06046584494822705,0.016447581658060206,1.0644356577781992e-07,5.541029256417646,0.17267872912079124,0.9882614790397197
0.06075517371573009,0.016443812184299557,1.0494887460901113e-07,5.389509970761103,0.1704623287493215,0.9882614794592022
0.06104450248323313,0.01644004798805509,1.0347336956411104e-07,5.240298867167224,0.16827437840668533,0.988261479895852
0.061333831250736166,0.01643629115739301,1.0201680437109586e-07,5.093468164425318,0.16611451290428647,0.988261480350821
0.061623160018239205,0.016432543736762083,1.0057893591927981e-07,4.949083794493904,0.16398237174114086,0.9882614808253641
0.061912488785742244,0.01642880772309014,9.915952421875592e-08,4.807205401739951,0.16187759904370644,0.9882614813208506
0.06220181755324528,0.016425085062194564,9.775833236036186e-08,4.66788637186582,0.15979984350648416,0.9882614818387806
0.06249114632074832,0.016421377645513595,9.637512647616362e-08,4.531173888941983,0.15774875833338203,0.9882614823807984
0.06278047508825137,0.01641768730716294,9.500967570045212e-08,4.3971090188055815,0.15572400117983173,0.9882614829487119
0.0630698038557544,0.016414015821319388,9.366175213124663e-08,4.265726816956383,0.15372523409564848,0.9882614835445181
0.06335913262325744,0.016410364899930394,9.23311307922995e-08,4.137056458980807,0.15175212346862363,0.9882614841704261
0.06364846139076048,0.016406736190746722,9.101758959559874e-08,4.0111213914633295,0.14980433996884226,0.9882614848288899
0.06393779015826352,0.016403131275672708,8.972090930436295e-08,3.8879395013003126,0.14788155849371473,0.9882614855226445
0.06422711892576656,0.016399551669426953,8.844087349652559e-08,3.7675233013108222,0.14598345811371433,0.9882614862547501
0.0645164476932696,0.016395998818504443,8.717726852870529e-08,3.6498801300457906,0.14410972201881117,0.988261487028646
0.06480577646077264,0.016392474100429676,8.592988350066158e-08,3.5350123637225557,0.14226003746559363,0.9882614878482158
0.06509510522827568,0.01638897882328892,8.469851022023454e-08,3.4229176382593507,0.14043409572506896,0.9882614887178641
0.06538443399577872,0.016385514225528974,8.348294316877175e-08,3.3135890794502845,0.13863159203113326,0.9882614896426178
0.06567376276328175,0.016382081476008684,8.228297946704592e-08,3.2070155394017408,0.13685222552970364,0.9882614906282445
0.06596309153078479,0.016378681674289342,8.109841884167316e-08,3.1031818374476985,0.13509569922850254,0.9882614916814058
0.06625242029828783,0.016375315851149642,7.992906359204569e-08,3.0020690038702806,0.13336171994748766,0.9882614928098525
0.06654174906579087,0.01637198496931127,7.877471855780269e-08,2.903654524872851,0.131649998269917,0.9882614940226764
0.06683107783329391,0.01636868992436173,7.763519108687536e-08,2.8079125873883313,0.12996024849404278,0.9882614953306321
0.06712040660079695,0.01636543154586286,7.651029100416184e-08,2.714814322455363,0.1282921885854255,0.9882614967465743
0.06740973536829999,0.01636221059863569,7.539983058092077e-08,2.624328046069655,0.12664554012985937,0.9882614982860368
0.06769906413580302,0.016359027784217214,7.430362450502045e-08,2.536419496629312,0.12502002828690292,0.9882614999680356
0.06798839290330606,0.016355883742492604,7.322148985227086e-08,2.451052068376608,0.12341538174400542,0.9882615018161891
0.0682777216708091,0.0163527790535214,7.215324605921361e-08,2.368187040657264,0.12183133267122247,0.9882615038603315
0.06856705043831214,0.016349714239604848,7.1098714898021e-08,2.287783803522309,0.1202676166765127,0.9882615061389082
0.06885637920581518,0.01634668976770006,7.005772045468442e-08,2.209800081526065,0.1187239727616084,0.9882615087026341
0.06914570797331822,0.01634370605241519,6.903008911275083e-08,2.134192160374933,0.11720014327845267,0.9882615116203349
0.06943503674082126,0.016340763460125876,6.801564954723854e-08,2.060915127664222,0.11569587388619544,0.9882615149887354
0.0697243655083243,0.016337862315562997,6.701423273909258e-08,1.9899231563024717,0.11421091350874175,0.9882615189498859
0.07001369427582733,0.016335002914669168,6.602567203615838e-08,1.9211699118387542,0.11274501429284506,0.9882615237247153
0.07030302304333037,0.016332185556375674,6.504980333688957e-08,1.854609356191881,0.11129793156673806,0.9882615296846666
0.07059235181083341,0.016329410647610388,6.408646567941369e-08,1.790198125367763,0.10986942379929493,0.9882615375285008
0.07088168057833645,0.01632667924077867,6.313550380682155e-08,1.7279073228589577,0.10845925255971758,0.9882615488262422
0.07117100934583949,0.016324002218158308,6.219680142904777e-08,1.6679245006991184,0.10706718247773944,0.9882615684903617
0.07146033811334253,0.01632213500903948,6.127261836659334e-08,1.626696982827456,0.10569298120434055,0.9882616406857281
0.07174966688084557,0.016320905924886525,6.036662308497242e-08,1.5989991800106635,0.10433641937299702,0.9882645911883119
0.0720389956483486,0.016319842801408246,5.948008714224704e-08,1.5736582314010255,0.10299727056141493,0.988272619426712
0.07232832441585164,0.01631895626980632,5.861289340132616e-08,1.550716076122858,0.10167531125370735,0.9882861973159026
0.07261765318335468,0.016318266088836804,5.776522462425902e-08,1.5303676080507034,0.10037032080306948,0.9883059484031499
0.07290698195085772,0.01631779953927825,5.6937701821667134e-08,1.5128967567022114,0.09908208139495428,0.9883327409734907
0.07319631071836076,0.01631759445925787,5.61316019666274e-08,1.498704444771658,0.09781037801072279,0.9883678156821311
0.0734856394858638,0.016317704598153494,5.534926071845602e-08,1.4883608501714296,0.09655499839176415,0.9884130042385773
0.07377496825336684,0.016318208305640396,5.459487605131111e-08,1.482677810914404,0.09531573300408085,0.9884711338699262
0.07406429702086988,0.01631922115284556,5.387623880718e-08,1.482755700870023,0.09409237500333913,0.9885468358546756
0.07435362578837292,0.016320904529921302,5.3208642754035084e-08,1.489691788353677,0.09288472020039011,0.9886482958989237
0.07464295455587595,0.016323423113927666,5.2622617760505694e-08,1.5025969026206747,0.09169256702728386,0.9887912026963379
0.07493228332337899,0.016326841189043782,5.2169008796838064e-08,1.5142874598563674,0.09051571650381873,0.9890060893691418
0.07522161209088203,0.016331386551887934,5.190141565157546e-08,1.5164608740072214,0.08935397220458556,0.989339367334653
0.07551094085838507,0.016337608306582263,5.185002040062821e-08,1.5099390480733634,0.08820714022620925,0.9898292374086286
0.07580026962588811,0.01634590091333292,5.202163795532175e-08,1.4987468532581085,0.08707502915467491,0.9904911382544477
0.07608959839339115,0.016356420744332092,5.2414731805726214e-08,1.485519567291589,0.08595745003307413,0.991327550638307
0.07637892716089419,0.016369201194979276,5.3027969245896765e-08,1.4716288568737093,0.08485421632995813,0.9923361450903908
0.07666825592839722,0.016384222137082585,5.386318151500964e-08,1.4577758216102135,0.08376514390820662,0.9935129147973826
