Time [s],Lmtc [m],STIM [ ],Fsee [N],Gamma [ ],Lcerel [ ]
0.0,0.018825006649594266,0.9999998826783615,2.3910754367268314,0.11368448350680366,1.1736566047074712
0.0011755738942483514,0.01883363504389209,0.9999998664825377,3.2755610986783745,0.13840905514355714,1.1720043052845457
0.002351147788496703,0.018825942622026144,0.9999998424523414,4.066628630398511,0.16244391198621355,1.1696233136482057
0.003526721682745054,0.018807282339336782,0.9999998115110865,4.736450998824135,0.18580829403573818,1.1668295345683908
0.004702295576993406,0.01878082947106854,0.9999997743522395,5.279623689508863,0.20852090460158196,1.163785774687454
0.005877869471241757,0.018748859010141127,0.9999997316223515,5.711313379141384,0.23059992526676606,1.1605838677697133
0.007053443365490109,0.018713002061312,0.9999996839421318,6.053481346791643,0.25206303044060485,1.1572784050762461
0.00822901725973846,0.018674401794673064,0.9999996319023179,6.326879532182892,0.27292740150605554,1.1539032702711405
0.009404591153986811,0.018633850667950022,0.999999576054012,6.548393496361112,0.29320974057229937,1.1504803227123788
0.010580165048235163,0.01859189809021532,0.9999995169004434,6.730890024131917,0.31292628384341215,1.1470241506237755
0.011755738942483515,0.018548927713712325,0.999999454891877,6.883893582859791,0.3320928146138744,1.143544777408589
0.012931312836731866,0.018505210421546073,0.9999993904234866,7.014380911909037,0.3507246759014178,1.1400492619781453
0.014106886730980218,0.01846093993978145,0.9999993238354843,7.127459617003473,0.36883678272740744,1.1365426790125637
0.01528246062522857,0.018416256659556828,0.9999992554147786,7.226887259148282,0.3864436340546548,1.1330287390242082
0.01645803451947692,0.018371263635740192,0.9999991853975493,7.315450031231291,0.403559324392262,1.1295101921381505
0.01763360841372527,0.018326037426769973,0.9999991139722756,7.395233406500987,0.42019755507680934,1.1259890979935279
0.018809182307973623,0.01828063552383166,0.999999041282885,7.467814245260419,0.4363716452389286,1.122467010444158
0.019984756202221975,0.018235101507837265,0.9999989674317885,7.534397215474345,0.4520945424640419,1.1189451066538976
0.021160330096470326,0.01818946867680679,0.9999988924826484,7.595912117052912,0.46737883315579404,1.1154242790617919
0.022335903990718678,0.01814376263126801,0.9999988164627736,7.653083799486477,0.4822367526104639,1.1119052020323736
0.02351147788496703,0.018098003140916866,0.9999987393650754,7.706482806894336,0.4966801948104105,1.1083883809164259
0.02468705177921538,0.018052205509197096,0.9999986611495394,7.75656239095662,0.5107207219443725,1.1048741886767663
0.025862625673463733,0.01800638158274016,0.9999985817441766,7.8036858098248665,0.5243695736622348,1.101362893582846
0.027038199567712085,0.017960540506530915,0.9999985010454246,7.848146647681703,0.537637676071651,1.0978546803969076
0.028213773461960436,0.017914689294872575,0.9999984189179658,7.890184076187973,0.5505356504837059,1.0943496667535526
0.029389347356208788,0.017868833267408176,0.9999983351939165,7.929994417853085,0.5630738219146073,1.0908479159456312
0.03056492125045714,0.017822976093167183,0.999998249671334,7.967725807025616,0.5752622273501916,1.0873494469926295
0.03174049514470549,0.01777711832126345,0.9999981621119635,8.00340065177848,0.5871106237798411,1.083854242632397
0.03291606903895384,0.017731261448241137,0.9999980722381241,8.037108179425681,0.5986284960062279,1.0803622557103871
0.03409164293320219,0.017685406740930675,0.9999979797285986,8.068944191288612,0.6098250642371078,1.0768734143210652
0.035267216827450536,0.017639554862000258,0.9999978842133508,8.09898994203329,0.6207092914652204,1.0733876259694006
0.036442790721698884,0.017593705973194124,0.9999977852668347,8.12731471960594,0.6312898906421759,1.0699047809567657
0.03761836461594723,0.017547859818506033,0.9999976823995907,8.153977905001513,0.6415753316520276,1.0664247551484058
0.03879393851019558,0.01750201579155883,0.999997575047725,8.1790306269645,0.6515738480900801,1.0629474122443774
0.03996951240444393,0.017456172990464126,0.9999974625597373,8.202517099160954,0.6612934438523027,1.0594726056492336
0.04114508629869228,0.01741033026269014,0.9999973441799898,8.224475706861126,0.6707418995405546,1.0560001800154395
0.042320660192940625,0.017364486241904516,0.9999972190278646,8.244939894814793,0.679926778688674,1.0525299725199608
0.04349623408718897,0.017318639378331994,0.9999970860713274,8.263938896416736,0.6888554338142995,1.049061813921417
0.04467180798143732,0.017272787963840495,0.9999969440931371,8.28149833546288,0.6975350123011348,1.0455955294358177
0.04584738187568567,0.0172269301527182,0.999996791647275,8.297640725074185,0.7059724621161794,1.0421309394615674
0.04702295576993402,0.017181063978908832,0.999996627002187,8.312385883195427,0.7141745373662556,1.0386678601785866
0.048198529664182366,0.01713518737032078,0.9999964480660004,8.32575128007613,0.7221478036979505,1.0352061040418328
0.049374103558430714,0.01708929816070581,0.9999962522867153,8.337752330029419,0.7298986435448328,1.0317454801857797
0.05054967745267906,0.01704339409950923,0.9999960365170832,8.348402637329993,0.7374332612255096,1.0282857947534965
0.05172525134692741,0.016997472860018233,0.9999957968287336,8.357714204197832,0.7447576878957015,1.0248268511615493
0.05290082524117576,0.016951532046075392,0.9999955282518669,8.365697607300577,0.7518777863569887,1.0213684503100342
0.05407639913542411,0.016905569197576204,0.9999952244033066,8.372362148005173,0.7587992557241484,1.0179103907454443
0.055251973029672455,0.016859581794931078,0.9999948769427877,8.377715980649135,0.7655276359519213,1.014452468782811
0.0564275469239208,0.016813567262640286,0.9999944747572712,8.38176622233204,0.7720683122203327,1.0109944785924505
0.05760312081816915,0.016767522972105237,0.9999940027001728,8.38451904710702,0.7784265191749224,1.0075362122558018
0.0587786947124175,0.01672144624377822,0.9999934395738563,8.385979766949339,0.784607345013523,1.0040774597940876
0.05995426860666585,0.01667533463715947,0.9999927547677057,8.386167263113574,0.7906157354027541,1.0006180091729184
0.061129842500914196,0.01662918537249587,0.999991902391911,8.385079520526878,0.7964564971914798,0.9971576548344266
0.062305416395162544,0.01658299331663334,0.9999908103848957,8.382559470884077,0.8021343018570297,0.9936962487609052
0.0634809902894109,0.016536756744157118,0.9999893586951591,8.378604377897812,0.8076536885514377,0.9902336666141125
0.06465656418365925,0.016490473991573506,0.9999873313217932,8.373216227578792,0.8130190664540626,0.9867697821410549
0.06583213807790761,0.016444143354961437,0.9999842964940571,8.366396518270864,0.8182347157207263,0.9833044673455178
0.06700771197215596,0.016397763090800516,0.9999792475213513,8.358146288675218,0.8233047850639087,0.9798375925098183
0.06818328586640432,0.016351331416535962,0.9999691682900776,8.348466139917297,0.8282332793817263,0.9763690262073376
0.06935885976065267,0.016304846510908987,0.9999390251587849,8.337356251575692,0.8330240077156503,0.9728986353080694
0.07053443365490103,0.01625830697922058,0.982617175339605,8.324839462752232,0.8376802534776201,0.9694262849868924
0.07171000754914938,0.016211755934171294,3.078203469564361e-05,8.313137232985694,0.8417234051962588,0.9659518525964685
0.07288558144339774,0.01616474678381911,1.3545155981292246e-05,8.279256774037398,0.798681138820401,0.9624766723869427
0.0740611553376461,0.01611764411075245,7.840465528824368e-06,8.240274118482928,0.757839101766392,0.9590023348184235
0.07523672923189445,0.016070437865275705,5.080585273087745e-06,8.195519038952295,0.7190853676532218,0.9555291632368975
0.0764123031261428,0.016023116754701375,3.500931578883837e-06,8.144215511169355,0.682313294691086,0.952057570161684
0.07758787702039116,0.01597566815713619,2.5071148384428427e-06,8.085471597201478,0.6474216043390797,0.9485880737468855
0.07876345091463952,0.01592807807762736,1.8432430473722654e-06,8.018271121943032,0.6143141668786632,0.9451213171103909
0.07993902480888787,0.015880331178665285,1.3812698094044043e-06,7.941468819619105,0.5828997554213831,0.9416580909960444
0.08111459870313623,0.015832410927127588,1.0502292505085943e-06,7.853791121786196,0.5530918017239489,0.9381993602869947
0.08229017259738458,0.015784299913546823,8.077796859353599e-07,7.753845378300739,0.524808160871746,0.9347462949503157
0.08346574649163294,0.015735980415330066,6.272181121449654e-07,7.640140921420041,0.4979708865408578,0.9313003060577257
0.08464132038588129,0.015687435291648778,4.909674189880926e-07,7.511125861901449,0.47250601708876216,0.9278630875916789
0.08581689428012965,0.015638649311297603,3.8706064282809983e-07,7.36524363027913,0.44834337225095205,0.9244366648060299
0.086992468174378,0.01558961102132721,3.0712773897816945e-07,7.201012746494726,0.425416360054368,0.9210234499596763
0.08816804206862636,0.015540315257263019,2.451855746239958e-07,7.017131753682117,0.4036617935020074,0.9176263062703452
0.08934361596287471,0.015490766367419547,1.9688071960188966e-07,6.812608335819341,0.3830197165701063,0.9142486209297379
0.09051918985712307,0.015440982166543599,1.5899916011060652e-07,6.586907161593704,0.36343323906481534,0.9108943879601789
0.09169476375137142,0.0153909985432201,1.2913948747401634e-07,6.34010514286723,0.3448483798989631,0.9075683015507733
0.09287033764561978,0.015340874524120389,1.0548956427376587e-07,6.0730363698492535,0.32721391836667596,0.9042758602627194
0.09404591153986813,0.015290697461833909,8.667059939124416e-08,5.787403561469195,0.31048125301214774,0.901023482139755
0.09522148543411649,0.01524058789404239,7.162625287931526e-08,5.485830683556256,0.29460426770765547,0.8978186304033917
0.09639705932836484,0.015190703570535893,5.9542488909931346e-08,5.171834802962845,0.2795392045744542,0.8946699494578733
0.0975726332226132,0.01514124222586503,4.9788830085337996e-08,4.849705755472582,0.2652445433981909,0.891587412544765
0.09874820711686155,0.015092442956729964,4.187476230152813e-08,4.524299075548142,0.2516808872078104,0.8885824883772454
0.09992378101110991,0.015044586582646995,3.5417049002241816e-08,4.200766451076405,0.23881085370353847,0.8856683499268507
0.10109935490535826,0.014997996056162723,3.011508367157895e-08,3.8842597625291155,0.2265989722353904,0.8828601816137246
0.10227492879960662,0.014953038517959913,2.573239507688381e-08,3.579637953617707,0.21501158604876663,0.8801756922251806
0.10345050269385497,0.014910130200813882,2.2083105677121487e-08,3.2911751828992863,0.20401675952810283,0.8776359777397773
0.10462607658810333,0.014869742863413575,1.902243079865125e-08,3.0222318295197192,0.19358419018323508,0.875266789511581
0.10580165048235168,0.01483240470110675,1.6439990096390143e-08,2.774861280072467,0.18368512513615176,0.8730998365648289
0.10697722437660004,0.014798680653932306,1.4253841919340302e-08,2.5494508268528078,0.17429228187813361,0.8711728213648712
0.1081527982708484,0.014769112755431961,1.2402752931420078e-08,2.344701004269526,0.16537977307893817,0.8695258871603337
0.10932837216509675,0.014744112614871303,1.083613570741052e-08,2.158256171626284,0.1569230352407245,0.8681926694952701
0.1105039460593451,0.014723833655860582,9.505158456152382e-09,1.9878032244540422,0.1488987609999832,0.8671880079633641
0.11167951995359346,0.014708091643529975,8.360005294306218e-09,1.8318654900165692,0.14128483489098073,0.86649948030485
0.11285509384784181,0.014696395608953083,7.3537243760243386e-09,1.6897617176065143,0.13406027239401522,0.8660893881073367
0.11403066774209017,0.01468807254122666,6.447724120314419e-09,1.5609396891708889,0.12720516210084126,0.8659059465770618
0.11520624163633852,0.014678084587233433,5.605822492091919e-09,1.3564136789152401,0.1207006108379407,0.8658959531950285
0.11638181553058688,0.014668573755249572,4.807764027814968e-09,1.1726423290758434,0.11452869159579496,0.8658959385653258
0.11755738942483523,0.01465972032778298,5.665288592566586e-08,1.0135889789554648,0.10867239412166002,0.8658959310033233
0.11781038695915831,0.014676986304980365,5.5946088316266755e-08,1.334514862403825,0.10745174718191988,0.865895931003323
0.11806338449348139,0.014679466478612378,5.530757005625782e-08,1.3446684499163186,0.10624481224325684,0.8660437128874215
0.11831638202780446,0.014682632740976713,5.4722032964911454e-08,1.3508709912611454,0.10505143527411598,0.8662579278682921
0.11856937956212754,0.014686715222192146,5.420022475294951e-08,1.3504723154711713,0.10387146397306776,0.8665656812116389
0.11882237709645062,0.014692026057631204,5.374566471731114e-08,1.3450780262580406,0.10270474774966562,0.8669843577074873
0.1190753746307737,0.014698764344536075,5.3356739061533746e-08,1.3368989781561733,0.10155113770514423,0.8675206607007614
0.11932837216509677,0.01470701706823039,5.302979364675089e-08,1.3273931124829956,0.10041048661335905,0.8681756901727424
0.11958136969941985,0.014716808969627985,5.2760728029507694e-08,1.3173929786795133,0.09928264890197358,0.8689481920915678
0.11983436723374292,0.014728134003736307,5.2545601874184524e-08,1.307364933291318,0.09816748063387708,0.8698359562587379
0.120087364768066,0.014740971012320053,5.2380835998788185e-08,1.2975712605211884,0.09706483948881672,0.8708363937187491
0.12034036230238908,0.014755291405732672,5.2263260583431556e-08,1.288158734434328,0.09597458474523918,0.8719467870178318
0.12059335983671216,0.014771063057626627,5.2190106536922353e-08,1.279206818059336,0.0948965772623362,0.8731644050623019
0.12084635737103523,0.014788252362263065,5.215897695860219e-08,1.2707546468927615,0.0938306794622923,0.874486558082635
0.12109935490535831,0.014806825360054246,5.216781336071409e-08,1.2628166689320062,0.0927767553127306,0.8759106243092263
0.12135235243968139,0.014826748368342742,5.221486252709803e-08,1.2553920169299435,0.09173467030935681,0.8774340625133839
0.12160534997400446,0.014847988338204766,5.229864625414827e-08,1.2484702921659934,0.09070429145879663,0.8790544171609299
0.12185834750832754,0.014870513053956662,5.241793467640295e-08,1.2420352230837393,0.08968548726162642,0.8807693195766947
0.12211134504265062,0.0148942912396212,5.257172322189515e-08,1.2360670262586249,0.08867812769559341,0.8825764869139361
0.12236434257697369,0.014919292609066544,5.275921297601659e-08,1.2305439531929634,0.08768208419902508,0.8844737199141025
0.12261734011129677,0.01494548788148287,5.297979414234404e-08,1.2254433140722227,0.08669722965442381,0.8864589000161194
0.12287033764561985,0.014972848775346248,5.3233032277831136e-08,1.220742158610419,0.08572343837224618,0.8885299861408029
0.12312333517994292,0.015001347989045316,5.351865700312855e-08,1.2164177281749726,0.08476058607486422,0.8906850113435418
0.123376332714266,0.015030959173357884,5.383655292551159e-08,1.2124477531676054,0.08380854988070655,0.8929220794510454
0.12362933024858908,0.015061656899123149,5.4186752552166234e-08,1.2088106445160478,0.08286720828857767,0.8952393617516505
0.12388232778291215,0.015093416622294683,5.456943101103228e-08,1.2054856120930826,0.08193644116215348,0.8976350937803456
0.12413532531723523,0.015126214647813501,5.4984902433298785e-08,1.2024527324365333,0.08101612971465046,0.9001075722220528
0.1243883228515583,0.015160028093252583,5.543361788556063e-08,1.199692981222079,0.08010615649366752,0.9026551519456127
0.12464132038588138,0.015194834852859974,5.5916164770760504e-08,1.19718824127845,0.07920640536619783,0.9052762431738341
0.12489431792020446,0.015230613562410114,5.6433267645832456e-08,1.1949212937489118,0.07831676150380908,0.9079693087905274
0.12514731545452754,0.015267343565124249,5.6985790431031235e-08,1.1928757977970172,0.07743711136799011,0.9107328617825367
0.12540031298885063,0.015305004878819908,5.7574740011920143e-08,1.1910362627099778,0.07656734269566261,0.9135654628130635
0.12565331052317372,0.015343578164378924,5.820127126056911e-08,1.1893880151600875,0.07570734448485492,0.9164657179214633
0.1259063080574968,0.015383044695575662,5.886669352836755e-08,1.187917163603807,0.07485700698053722,0.9194322763441208
0.1261593055918199,0.015423386330273414,5.9572478689689886e-08,1.18661056123691,0.07401622166061622,0.9224638284506911
0.126412303126143,0.015464585482974287,6.03202708442253e-08,1.1854557685170346,0.07318488122208656,0.9255591037899128
0.12666530066046608,0.01550662509869261,6.11118978169142e-08,1.1844410159688066,0.07236287956733836,0.9287168692392563
0.12691829819478917,0.015549488628111353,6.194938462905492e-08,1.1835551677702714,0.07155011179061858,0.9319359272527793
0.12717129572911226,0.015593160003974824,6.283496915330714e-08,1.1827876864603728,0.07074647416464483,0.9352151142017716
0.12742429326343535,0.01563762361866698,6.377112021028327e-08,1.1821285989908685,0.06995186412736921,0.9385532988029847
0.12767729079775844,0.015682864302922775,6.476055841666959e-08,1.1815684642604984,0.06916618026889161,0.9419493806294884
0.12793028833208153,0.01572886730561941,6.580628015616562e-08,1.1810983422067245,0.06838932231851984,0.9454022886994436
0.12818328586640462,0.015775618274594568,6.691158511718547e-08,1.1807097644848537,0.06762119113197577,0.9489109801383327
0.1284362834007277,0.015823103238440002,6.80801079279756e-08,1.180394706731423,0.06686168867874516,0.9524744389104401
0.1286892809350508,0.015871308589220017,6.931585452398094e-08,1.1801455623855197,0.06611071802956991,0.9560916746156067
0.1289422784693739,0.015920221066066415,7.062324400824235e-08,1.1799551180251873,0.06536818334408175,0.9597617213475318
0.12919527600369698,0.01596982773960328,7.200715691876711e-08,1.1798165301651495,0.06463398985857453,0.9634836366100954
0.12944827353802008,0.016020115997157122,7.347299100410778e-08,1.1797233034548609,0.06390804387391531,0.9672565002884035
0.12970127107234317,0.01607107352870989,7.502672583869684e-08,1.1796692702118012,0.06319025274359087,0.9710794136714468
0.12995426860666626,0.01612268831355474,7.667499789426171e-08,1.1796485712227753,0.06248052486189017,0.9749514985234604
0.13020726614098935,0.016174948607616306,7.842518803775646e-08,1.1796556377457026,0.061778769652219845,0.9788718962012523
0.13046026367531244,0.01622784293139919,8.028552386912957e-08,1.1796851746448682,0.06108489755555203,0.9828397668149134
0.13071326120963553,0.01628136005853071,8.226519986945703e-08,1.17973214459433,0.060398820019003215,0.9868542884295181
0.13096625874395862,0.016335489004865558,8.43745190354141e-08,1.179791753286209,0.05972044948454267,0.9909146563055388
0.1312192562782817,0.01639021901812173,8.662506057497874e-08,1.1798594355829666,0.05904969937782937,0.9950200821758445
0.1314722538126048,0.016445539567824956,8.902987936888758e-08,1.1799308389237833,0.05838648409717605,0.9991697935573064
0.1317252513469279,0.01650144033323396,9.160374410911942e-08,1.1800017666545357,0.057730719002639715,1.0033630330722694
0.13197824888125098,0.016557911194534442,9.436342366323233e-08,1.1800682034739445,0.057082320405237114,1.0075990576857226
0.13223124641557407,0.0166149422296214,9.732803392017436e-08,1.180126381332727,0.05644120555628483,1.0118771381995337
0.13248424394989716,0.01667252370354319,1.0051945929884637e-07,1.1801727058512126,0.05580729263686278,1.016196558756622
0.13273724148422025,0.016730646060694687,1.0396286868342135e-07,1.1802037452928833,0.05518050074740085,1.0205566163002862
0.13299023901854334,0.016789299917456996,1.0768735153625487e-07,1.180216221882421,0.054560749897388544,1.0249566200577753
0.13324323655286643,0.01684847605518031,1.1172670813328565e-07,1.1802070036805679,0.05394796099520714,1.0293958910474916
0.13349623408718952,0.016908165413492233,1.1612043928807546e-07,1.180173096979972,0.05334205583808503,1.0338737616086207
0.13374923162151262,0.016968359083914825,1.2091499686522918e-07,1.1801116391884323,0.05274295710217685,1.0383895749520495
0.1340022291558357,0.01702904830377467,1.2616537890381898e-07,1.1800198921681915,0.05215058833276835,1.042942684731499
0.1342552266901588,0.017090224450391052,1.3193718544609645e-07,1.1798952360018806,0.051564873934609075,1.0475324546338578
0.1345082242244819,0.01715187903552837,1.383092981285434e-07,1.1797351631577513,0.05098573916237676,1.0521582579877709
