Time [s],Lmtc [m],STIM [ ],Fsee [N],Gamma [ ],Lcerel [ ]
0.0,0.019365870423246206,0.9999998701338273,2.262121891313418,0.10939432956178549,1.2145996231742107
0.0015060442488961032,0.019372302399827547,0.9999998414131914,3.383341490805004,0.14109700425727528,1.212155961027693
0.0030120884977922063,0.019354323220845102,0.9999997982049478,4.3185567300060095,0.1716711653207069,1.208724146645855
0.0045181327466883095,0.01932149002570555,0.9999997425774971,5.034870664192365,0.20115698366910567,1.2048149091025504
0.006024176995584413,0.019279366789573787,0.9999996764279515,5.563034557778376,0.22959320033849653,1.2006536039161466
0.007530221244480516,0.019231500816407728,0.9999996016212618,5.954053481336259,0.2570171773769426,1.1963518202899714
0.009036265493376619,0.019180069905094337,0.9999995199317626,6.2509415833154955,0.2834649469309077,1.1919692380342088
0.010542309742272722,0.01912639708350519,0.9999994329824984,6.483978957024946,0.30897125858222446,1.187539916794826
0.012048353991168825,0.019071294852347983,0.9999993422097888,6.673241039600262,0.3335696249978575,1.183084354009256
0.013554398240064928,0.01901527261478552,0.9999992488510749,6.831852056032562,0.3572923659534235,1.1786154133596156
0.015060442488961032,0.018958657413015424,0.9999991539487357,6.968441755543616,0.3801706507891823,1.1741414305384503
0.016566486737857135,0.018901664140843603,0.999999058363341,7.088767737340788,0.4022345393548687,1.1696679337990254
0.018072530986753238,0.018844436981195856,0.9999989627916259,7.196741762507223,0.4235130214974923,1.165198644465782
0.01957857523564934,0.018787074394700485,0.9999988677860918,7.2950732734154204,0.44403405514413996,1.1607360836286291
0.021084619484545444,0.018729644555324075,0.9999987737743522,7.385675324088622,0.46382460302985073,1.1562819536076574
0.022590663733441547,0.018672195119504832,0.9999986810771703,7.469923945429376,0.48291066811878475,1.1518373854606412
0.02409670798233765,0.018614759555784982,0.9999985899246739,7.5488265078268695,0.5013173277651586,1.147403104027917
0.025602752231233754,0.01855736133768522,0.999998500470571,7.623132873816035,0.5190687666587362,1.1429795406488734
0.027108796480129857,0.01850001677890981,0.9999984128043793,7.6934100372628444,0.5361883085980743,1.1385669117670196
0.02861484072902596,0.018442736987242293,0.9999983269617969,7.760093079232468,0.5526984471331771,1.1341652747603537
0.030120884977922063,0.018385529234730302,0.9999982429333846,7.823520510483372,0.5686208751177426,1.129774568237773
0.031626929226818166,0.01832839793393944,0.9999981606717515,7.883959155551161,0.5839765132097537,1.125394641535511
0.03313297347571427,0.018271345343672286,0.9999980800974259,7.941621923207573,0.5987855373577934,1.1210252765746007
0.03463901772461037,0.018214372085862615,0.9999980011035835,7.996680667135759,0.6130674053091472,1.116666204230767
0.036145061973506476,0.018157477528683033,0.9999979235597828,8.049275610631064,0.6268408821744744,1.1123171167066015
0.03765110622240258,0.018100660073534936,0.9999978473148339,8.099522335046494,0.640124065082585,1.107977676954214
0.03915715047129868,0.01804391737208848,0.9999977721989087,8.14751701936052,0.6529344069576961,1.1036475258964944
0.040663194720194785,0.017987246491805203,0.9999976980249773,8.193340409598472,0.6652887394503656,1.0993262879880987
0.04216923896909089,0.017930644043096206,0.999997624589634,8.237060855605606,0.6772032950522113,1.0950135755122459
0.04367528321798699,0.017874106277616045,0.9999975516733615,8.278736655856468,0.6886937284234483,1.0907089919065436
0.045181327466883095,0.017817628415199033,0.9999974790402579,8.31838071802292,0.6997751369612412,1.0864121343370765
0.0466873717157792,0.017761202795177157,0.9999974064372417,8.355866726307248,0.7104620806358835,1.0821225956862628
0.0481934159646753,0.01770482461298478,0.9999973335927197,8.391212336863687,0.7207686011208417,1.0778399660804479
0.049699460213571404,0.017648489344817612,0.9999972602146983,8.424451447205008,0.7307082402417873,1.073563834053917
0.05120550446246751,0.017592192350297253,0.9999971859882826,8.45561384242517,0.7402940577688335,1.069293787424029
0.05271154871136361,0.017535928894940208,0.999997110572496,8.48472578292246,0.7495386485753386,1.065029413935573
0.054217592960259714,0.017479694167618565,0.9999970335963148,8.511810482571466,0.7584541591857952,1.0607703017198238
0.05572363720915582,0.017423483294010444,0.999996954653783,8.536888500059495,0.7670523037345317,1.0565160396040454
0.05722968145805192,0.017367291346819105,0.999996873298025,8.559978060928149,0.7753443793561575,1.0522662172996926
0.058735725706948023,0.017311113353372026,0.9999967890339186,8.581095323956172,0.7833412810279473,1.0480204254917247
0.06024176995584413,0.017254944301081914,0.9999967013091168,8.600254602553042,0.7910535158836235,1.0437782558468482
0.06174781420474023,0.017198779141151543,0.9999966095030088,8.617468549561933,0.7984912170172936,1.0395393009549159
0.06325385845363633,0.017142612790825868,0.9999965129130831,8.63274831212241,0.8056641567956201,1.0353031542148163
0.06475990270253243,0.017086440134433434,0.9999964107379741,8.646103661887222,0.8125817596956353,1.0310694096739292
0.06626594695142854,0.01703025602341047,0.9999963020562385,8.657543104830504,0.8192531146849673,1.0268376618283697
0.06777199120032465,0.01697405527546208,0.9999961857995641,8.667073974055144,0.8256869871606128,1.022607505389766
0.06927803544922076,0.016917832672984044,0.9999960607186449,8.67470250835285,0.831891830461779,1.01837853502311
0.07078407969811687,0.016861582960843724,0.9999959253392754,8.680433918750971,0.8378757969716855,1.0141503450592433
0.07229012394701298,0.01680530084359798,0.999995777905235,8.684272444866316,0.8436467488226196,1.0099225291847158
0.07379616819590909,0.016748980982209637,0.9999956163030816,8.686221402553844,0.849212268217891,1.0056946801110944
0.0753022124448052,0.01669261816326904,0.9999954379620253,8.686291989054672,0.8545796673836802,1.0014663892252311
0.07680825669370131,0.016636207745362484,0.9999952397251333,8.68452176516203,0.8597559981630731,0.9972372526995217
0.07831430094259742,0.01657974076612914,0.9999950176739874,8.680664888656294,0.8647480612639901,0.993006963073565
0.07982034519149353,0.016523213400823144,0.9999947668638127,8.674695982156226,0.8695624151716778,0.9887752730765768
0.08132638944038964,0.016466622292851,0.9999944809522597,8.666614611252601,0.8742053847345208,0.9845419347808867
0.08283243368928575,0.016409964030316023,0.9999941516614709,8.656419746848796,0.878683069431007,0.9803066981456448
0.08433847793818186,0.016353235144529417,0.9999937679715457,8.644109779089117,0.8830013513232691,0.9760693108964388
0.08584452218707797,0.016296432108280575,0.9999933148746011,8.629682528670177,0.8871659026987974,0.9718295183944463
0.08735056643597408,0.016239551333876372,0.9999927713822148,8.613135255813745,0.8911821933957791,0.9675870634955029
0.08885661068487019,0.01618258917095689,0.9999921072063189,8.594464667130461,0.8950554977967541,0.9633416863993707
0.0903626549337663,0.016125541904091847,0.9999912769545524,8.57366692055981,0.8987909014551676,0.9590931244893682
0.09186869918266241,0.01606840575015995,0.9999902093587758,8.550737628529188,0.902393307279417,0.9548411121624536
0.09337474343155852,0.016011176855510748,0.9999887857536706,8.525671859426678,0.9058674411133391,0.9505853806497458
0.09488078768045463,0.015953851292905958,0.9999867927915234,8.49846413741351,0.9092178563519645,0.9463256578274298
0.09638683192935074,0.0158964250582335,0.9999838044411637,8.469108440473242,0.9124489367097854,0.9420616680179159
0.09789287617824685,0.015838894066981787,0.9999788289230722,8.437598196294859,0.9155648946900571,0.9377931317812026
0.09939892042714296,0.01578125415044903,0.999968902741597,8.403926274851095,0.9185697575407387,0.9335197656965789
0.10090496467603907,0.015723501051700412,0.9999393479256345,8.368084977590069,0.9214673036628372,0.9292412821361502
0.10241100892493518,0.015665646411218814,0.6770058952661826,8.33085956305336,0.924260654472998,0.9249573890417229
0.10391705317383129,0.015607593536941787,2.775299748192175e-05,8.287272592513144,0.9081800922513064,0.9206683899755804
0.1054230974227274,0.015549081063208047,1.1727185478860465e-05,8.223193015914319,0.8491170014278178,0.9163762452393459
0.10692914167162351,0.015490385559056992,6.509978485809927e-06,8.151147238144146,0.7938941700278532,0.9120829203527544
0.10843518592051962,0.015431486908750668,4.041156218043344e-06,8.069776569308868,0.7422625410459261,0.9077891597460515
0.10994123016941573,0.015372361796752103,2.665308456102475e-06,7.977452131485671,0.6939887312562427,0.9034959549262084
0.11144727441831184,0.015312983477876695,1.8257239565166253e-06,7.872246641851196,0.6488544283771029,0.8992046018900093
0.11295331866720795,0.01525332180013819,1.2834908335747785e-06,7.75191838983112,0.6066554823532658,0.8949167708608854
0.11445936291610406,0.015193343688396373,9.196850733956656e-07,7.613918165848991,0.5672010049520377,0.8906345907110262
0.11596540716500017,0.015133014388147615,6.689103904703889e-07,7.455433868466207,0.5303125150542323,0.8863607507767389
0.11747145141389628,0.015072299875484321,4.925687187674695e-07,7.273491295763024,0.49582313521073923,0.882098623156103
0.11897749566279239,0.015011170940335482,3.6666064305917344e-07,7.065131505864045,0.46357683871445915,0.8778524089759275
0.1204835399116885,0.01494960950510404,2.7566631716919167e-07,6.8276823537467894,0.43342774484720403,0.8736273125053505
0.12198958416058461,0.014887617684683064,2.0924296883182318e-07,6.559130724440034,0.40523945956384516,0.8694297473245458
0.12349562840948072,0.014825229844070021,1.6033536861634082e-07,6.258579207683257,0.37888445884177546,0.8652675789282617
0.12500167265837683,0.014762527396720047,1.240423073121768e-07,5.926736025245258,0.35424351201274484,0.8611504079872443
0.12650771690727294,0.0146996553153817,9.690967945587119e-08,5.56634618050438,0.331205142525895,0.857089897821238
0.12801376115616905,0.014636838463347603,7.647525340405558e-08,5.182441005285035,0.3096651237353137,0.8531001486240632
0.12951980540506516,0.014574395301510805,6.096759258696471e-08,4.782286378009798,0.2895260074505783,0.8491981216634744
0.13102584965396127,0.014512746932969833,4.9102402727570525e-08,4.374967777448506,0.27069668312950107,0.8454041278464794
0.13253189390285738,0.014452421514433295,3.994216183739866e-08,3.970659268028301,0.2530919657265257,0.8417424440286106
0.1340379381517535,0.014394057830470637,3.279814616055969e-08,3.579726496190245,0.23663221033720613,0.8382422671318432
0.1355439824006496,0.014338414950769382,2.7162387697859887e-08,3.21179319027245,0.22124295189878104,0.8349395143274987
0.13705002664954571,0.014286390683488522,2.266232055919701e-08,2.874681279049582,0.2068545683192125,0.8318802129257449
0.13855607089844182,0.014239030883034968,1.903188762154451e-08,2.5729696721779933,0.19340196551243752,0.829125291860728
0.14006211514733793,0.014197475167181138,1.6088507868339433e-08,2.306521603129167,0.1808242829161873,0.8267524078579206
0.14156815939623404,0.014162762942873157,1.3702710372206808e-08,2.0707711028719515,0.1690646181606212,0.8248438834769755
0.14307420364513015,0.014135483543593681,1.1762307749860816e-08,1.8601021779650986,0.1580697696417862,0.8234532957170423
0.14458024789402626,0.014115446010941866,1.0154526969569286e-08,1.6714427207026221,0.1477899958350609,0.822569770010591
0.14608629214292237,0.01410168580092413,8.776353734326904e-09,1.5041854786009867,0.13817879026103372,0.8221168196506529
0.14759233639181848,0.014090142396846804,7.543290387975992e-09,1.3040854722890831,0.1291926710876562,0.8219880708651411
0.1490983806407146,0.014078316514978022,6.402321957081963e-09,1.0822216196038927,0.12079098441666604,0.8219880391086991
0.1506044248896107,0.014067533482377766,6.600551611060342e-08,0.8979368273242767,0.11293572036456508,0.8219880282096454
0.15091656245889642,0.014085268109824453,6.50246932404455e-08,1.2101427509646292,0.11137271247923121,0.8219880282096454
0.15122870002818214,0.014088656449836152,6.416588229423887e-08,1.2169879490715119,0.10983133822647016,0.8222151025980653
0.15154083759746786,0.014093265093760791,6.340295163291383e-08,1.2154023713346485,0.10831129817611487,0.8225671033374201
0.15185297516675358,0.014099601718467797,6.274058275697716e-08,1.2079820080814685,0.10681229704206005,0.8230718701231433
0.1521651127360393,0.01410794076279387,6.217393039151772e-08,1.1978476271108414,0.10533404362533041,0.8237377562429491
0.15247725030532502,0.014118369607709028,6.169526482840251e-08,1.1867490536024294,0.10387625075737862,0.8245644451595071
0.15278938787461074,0.014130890260779034,6.129675724660138e-08,1.1755613099109508,0.10243863524426004,0.8255486225267014
0.15310152544389646,0.014145468640830012,6.097129088781159e-08,1.1647195583361223,0.10102091781161898,0.8266859804294789
0.15341366301318218,0.014162055429362864,6.071262870726425e-08,1.1544379403439031,0.09962282305044716,0.8279719329781385
0.1537258005824679,0.014180595208700061,6.051538450656623e-08,1.144815155431025,0.09824407936359567,0.8294018927053053
0.15403793815175362,0.014201030706111548,6.037493882692684e-08,1.1358873228264776,0.09688441891302636,0.8309713837173245
0.15435007572103934,0.014223304859316235,6.028734589360933e-08,1.1276557794905475,0.09554357756779287,0.8326760882094025
0.15466221329032506,0.014247361846350039,6.024924678138471e-08,1.1201023745005143,0.09422129485273971,0.8345118635909967
0.15497435085961078,0.014273147594314235,6.025779313120396e-08,1.113198205542911,0.09291731389791053,0.8364747459012748
0.1552864884288965,0.0143006100136624,6.031058186459758e-08,1.1069087559568471,0.09163138138865547,0.8385609466230767
0.15559862599818222,0.014329699082989585,6.040560000348387e-08,1.1011969768607532,0.09036324751642819,0.8407668463182926
0.15591076356746794,0.014360366850690056,6.05411783320968e-08,1.096025156554347,0.08911266593026342,0.843088986812693
0.15622290113675366,0.014392567390148995,6.071595263491623e-08,1.091356054377353,0.0878793936889246,0.8455240628332289
0.15653503870603938,0.014426256729388923,6.092883137199872e-08,1.0871535785866708,0.0866631912137147,0.8480689135795576
0.1568471762753251,0.014461392767413463,6.117896881516142e-08,1.0833831768415805,0.08546382224193846,0.8507205144877726
0.15715931384461082,0.014497935184543256,6.1465742827311e-08,1.0800120435167224,0.08428105378100902,0.8534759693215314
0.15747145141389654,0.014535845351135678,6.17887366094275e-08,1.077009209638395,0.08311465606318937,0.8563325026567926
0.15778358898318226,0.01457508623733313,6.214772386208092e-08,1.0743455577143837,0.08196440250095992,0.859287452786905
0.15809572655246798,0.014615622325412997,6.254265691177022e-08,1.071993788999342,0.08083006964300367,0.8623382650521191
0.1584078641217537,0.014657419525643582,6.297365743919491e-08,1.0699283613355373,0.07971143713080027,0.8654824855846037
0.15872000169103942,0.01470044509612827,6.344100951948397e-08,1.0681254096031143,0.07860828765582098,0.8687177554528045
0.15903213926032514,0.014744667566852325,6.39451547459865e-08,1.0665626567914268,0.07752040691731589,0.8720418051851956
0.15934427682961086,0.014790056667976281,6.448668926173957e-08,1.065219321019661,0.07644758358068521,0.8754524496517526
0.15965641439889658,0.014836583262312665,6.506636256813529e-08,1.0640760220268242,0.07538960923642693,0.8789475832810375
0.1599685519681823,0.014884219281856055,6.568507802026802e-08,1.0631146894234609,0.07434627835965256,0.8825251755910665
0.16028068953746802,0.014932937668197487,6.634389495438809e-08,1.0623184741591942,0.0733173882701631,0.8861832670129252
0.16059282710675374,0.014982712316632006,6.704403242604485e-08,1.0616716640862995,0.07230273909307794,0.8899199649870502
0.16090496467603946,0.015033518023758588,6.778687456896557e-08,1.0611596041065374,0.07130213372000843,0.8937334403132668
0.16121710224532518,0.015085330438369286,6.857397761548131e-08,1.0607686211208176,0.07031537777076906,0.8976219237368166
0.1615292398146109,0.015138126015427364,6.940707865032197e-08,1.060485953820048,0.06934227955561878,0.9015837027538041
0.16184137738389662,0.015191881972940132,7.028810620178485e-08,1.0602996872352137,0.0683826500380249,0.9056171186206183
0.16215351495318234,0.015246576251540554,7.12191928085996e-08,1.0601986918865307,0.06743630279794255,0.9097205635530061
0.16246565252246806,0.015302187476600535,7.220268973828477e-08,1.060172567323185,0.06650305399560269,0.9138924781014851
0.16277779009175378,0.015358694922708773,7.324118407455567e-08,1.0602115898173445,0.06558272233580142,0.9181313486907806
0.1630899276610395,0.015416078480355913,7.433751843870502e-08,1.0603066639627676,0.06467512903268384,0.9224357053118738
0.16340206523032522,0.015474318624679625,7.549481366434582e-08,1.0604492779249894,0.06378009777501552,0.9268041193561004
0.16371420279961094,0.01553339638613168,7.671649480830623e-08,1.060631462093106,0.06289745469193521,0.9312352015815275
0.16402634036889666,0.015593293322938321,7.800632095498403e-08,1.0608457508910223,0.062027028319181554,0.9357276002025552
0.16433847793818238,0.01565399149523415,7.936841935979948e-08,1.0610851475164151,0.061168649565788095,0.9402799990943884
0.1646506155074681,0.01571547344075771,8.080732458285416e-08,1.061343091387861,0.06032215168123931,0.9448911161046176
0.16496275307675382,0.015777722152004955,8.232802339066374e-08,1.0616134280936034,0.0594873702230822,0.9495597014647441
0.16527489064603954,0.015840721054744114,8.393600635709206e-08,1.061890381648711,0.05866414302498628,0.9542845362950073
0.16558702821532525,0.015904453987802075,8.563732728097717e-08,1.0621685288807319,0.057852310165247,0.9590644311963614
0.16589916578461097,0.015968905184038963,8.743867176579675e-08,1.0624427757766302,0.0570517139357254,0.963898224923899
0.1662113033538967,0.016034059252433352,8.934743658683092e-08,1.0627083356364222,0.05626219881121883,0.9687847831364345
0.16652344092318241,0.016099901161206284,9.13718218175135e-08,1.0629607088904163,0.05548361141925667,0.9737229972173538
0.16683557849246813,0.016166416221916995,9.352093811700627e-08,1.0631956644482274,0.05471580051031555,0.9787117831621696
0.16714771606175385,0.01623359007446835,9.580493211899022e-08,1.0634092224579244,0.05395861692844808,0.9837500805285688
0.16745985363103957,0.016301408672964163,9.823513353813994e-08,1.0635976383634582,0.053211913582319866,0.9888368514450269
0.1677719912003253,0.016369858272364694,1.0082422846666389e-07,1.0637573881573676,0.05247554541664959,0.9939710796743464
0.168084128769611,0.016438925415645924,1.0358646438229703e-07,1.063885150398701,0.05174936938404664,0.9991517697287315
0.16839626633889673,0.01650859691859401,1.0653789333316168e-07,1.0639777428113153,0.051033244417241566,1.0043779459995894
0.16870840390818245,0.01657885985886388,1.0969666275621628e-07,1.0640321600707812,0.05032703140170397,1.009648651779207
0.16902054147746817,0.016649701571310793,1.1308336580055409e-07,1.0640456366748114,0.04963059314864369,1.0149629486469702
0.1693326790467539,0.016721109635347103,1.1672146395331936e-07,1.0640155698198424,0.04894379436839034,1.020319915849396
0.1696448166160396,0.01679307186539002,1.206378005556513e-07,1.0639395088502546,0.04826650164414731,1.0257186496303778
0.16995695418532533,0.016865576301886707,1.2486322902801128e-07,1.0638151466406582,0.04759858340611597,1.0311582625964992
0.17026909175461105,0.01693861120282248,1.2943338682358177e-07,1.0636403115969315,0.046939909905986905,1.0366378831158993
0.17058122932389677,0.01701216503568371,1.3438965610267347e-07,1.0634129602281073,0.04629035319179471,1.042156654748752
0.1708933668931825,0.017086226469849218,1.3978036585470526e-07,1.0631311702450301,0.04564978708313444,1.0477137357075814
0.1712055044624682,0.017160784369385437,1.456623093300224e-07,1.0627931341452455,0.045018087146737294,1.0533082983457196
0.17151764203175393,0.0172358277862222,1.521026776505114e-07,1.062397153246792,0.04439513067240575,1.058939528672335
