Time [s],Lmtc [m],STIM [ ],Fsee [N],Gamma [ ],Lcerel [ ]
0.0,0.019864690671820864,0.9999998527046582,2.069245133929088,0.10333854891818804,1.252591723538513
0.001842397920032281,0.019869768545569787,0.9999998060873068,3.406390582705418,0.14222861164779396,1.2494199497603429
0.003684795840064562,0.019840612141765634,0.999999733725052,4.437461219103516,0.17943192957681964,1.2449562913019305
0.005527193760096843,0.019793091238103924,0.9999996403095017,5.1512814279526875,0.2150216592133194,1.2399681071738382
0.007369591680129124,0.01973569975819526,0.9999995304479744,5.640530968580082,0.24906778431916074,1.234743616666462
0.009211989600161405,0.019673034685453124,0.9999994085644012,5.990961004516986,0.28163725351495955,1.2294086100580086
0.011054387520193686,0.019607515429077196,0.9999992786341118,6.257184705534874,0.3127941119125052,1.2240241547878272
0.012896785440225966,0.01954043933885308,0.9999991440488899,6.471043149015409,0.3425996270265106,1.2186224229332447
0.014739183360258246,0.01947252760453353,0.9999990075908269,6.6509767583880235,0.3711124092194563,1.2132213844042357
0.01658158128029053,0.019404196605102047,0.9999988714695232,6.807895604910644,0.398388526921357,1.2078314628633726
0.01842397920032281,0.019335694831664998,0.9999987373891864,6.94845532735615,0.42448161685382163,1.2024588149304267
0.020266377120355093,0.019267174413732633,0.9999986066251397,7.076851164140195,0.4494429894763761,1.1971070621800866
0.022108775040387375,0.019198730010115652,0.9999984800984903,7.1958133976689265,0.47332172986268045,1.191778260119252
0.023951172960419657,0.01913042081150386,0.9999983584435391,7.3071734207506855,0.49616479420476994,1.1864734667931953
0.02579357088045194,0.019062283458904487,0.9999982420659075,7.412194812173161,0.5180171021346351,1.1811930899883407
0.02763596880048422,0.018994339888554992,0.999998131191205,7.511772545514419,0.5389216250441397,1.1759371064071673
0.029478366720516503,0.018926602241901857,0.9999980259049654,7.606556163037692,0.5589194705764342,1.1707052039239871
0.03132076464054878,0.018859076022144518,0.9999979261849493,7.697027907705722,0.5780499634545331,1.1654968760805196
0.033163162560581064,0.018791762172060633,0.9999978319269887,7.783553474386545,0.5963507228055873,1.1603114860694288
0.035005560480613346,0.01872465847037392,0.9999977429654846,7.8664157069120115,0.6138577361325669,1.1551483107367986
0.03684795840064563,0.01865776048720476,0.9999976590895413,7.945837429701312,0.6306054300785249,1.1500065712150684
0.03869035632067791,0.018591062248023493,0.9999975800555692,8.021997209881329,0.6466267381223689,1.144885454440931
0.04053275424071019,0.018524556701114595,0.9999975055970536,8.095040429257875,0.6619531653390727,1.1397841283565247
0.042375152160742474,0.018458236050262193,0.9999974354320555,8.165087188008862,0.6766148503515262,1.1347017526706746
0.044217550080774756,0.018392091993524692,0.9999973692688999,8.232238031987366,0.690640624595732,1.1296374864609107
0.04605994800080704,0.018326115895647,0.9999973068104199,8.296578161510274,0.7040580690157915,1.1245904935038846
0.04790234592083932,0.018260298912982743,0.9999972477570453,8.358180565136285,0.7168935683000983,1.1195599459579402
0.0497447438408716,0.01819463208404671,0.9999971918089686,8.417108381992419,0.7291723627653282,1.1145450268415513
0.051587141760903885,0.018129106394942484,0.999997138667563,8.47341670338835,0.7409185979902048,1.1095449316267645
0.05342953968093617,0.018063712826259185,0.9999970880361986,8.527153961972331,0.7521553722966114,1.1045588691793669
0.05527193760096845,0.017998442386192918,0.999997039620559,8.578363014028549,0.7629047821713804,1.0995860622154647
0.05711433552100073,0.0179332861333573,0.9999969931285428,8.627081991016846,0.7731879657180606,1.0946257473996108
0.05895673344103301,0.017868235191829444,0.9999969482698073,8.673344975802477,0.7830251442240856,1.0896771751773315
0.060799131361065295,0.017803278688166013,0.9999969047549964,8.717077348315833,0.7924356619250694,1.084739609411265
0.06264152928109758,0.01773840415733862,0.9999968622946767,8.758115398046153,0.8014380240444089,1.0798123268726851
0.06448392720112986,0.01767360294957973,0.9999968205979943,8.796481576522222,0.8100499331829798,1.0748946166272308
0.06632632512116214,0.0176088665662175,0.9999967793710499,8.832199840600463,0.818288324130483,1.0699857793439203
0.06816872304119442,0.01754418657575459,0.999996738314976,8.865291797493141,0.8261693971668767,1.0650851265492418
0.0700111209612267,0.017479554609311013,0.9999966971236904,8.89577690875213,0.8337086499193747,1.060191979842541
0.07185351888125899,0.017414962354814406,0.9999966554812829,8.92367266086049,0.8409209078376401,1.0553056700846934
0.07369591680129127,0.017350401550205515,0.999996613058975,8.948994708550204,0.8478203533470969,1.050425536568815
0.07553831472132355,0.0172858639758617,0.9999965695115772,8.971756995655078,0.8544205537376687,1.0455509261792528
0.07738071264135583,0.017221341446390873,0.9999965244733391,8.991971857302676,0.8607344878427678,1.040681192543153
0.07922311056138812,0.01715682580190933,0.9999964775530628,9.009650106471081,0.8667745715609904,1.0358156951774091
0.0810655084814204,0.017092308898886046,0.9999964283283087,9.024801107330427,0.8725526822706577,1.0309537986325878
0.08290790640145268,0.017027782600611593,0.9999963763384763,9.037432837313508,0.8780801821852087,1.0260948716344909
0.08475030432148496,0.01696323876733074,0.9999963210764751,9.047551939484071,0.8833679406953142,1.021238286223276
0.08659270224151724,0.016898669246061475,0.9999962619786187,9.055163766472402,0.8884263557416064,1.0163834168894248
0.08843510016154953,0.016834065860111106,0.9999961984122567,9.06027241700802,0.8932653742599915,1.011529639705371
0.09027749808158181,0.01676942039828858,0.9999961296605034,9.062880765886014,0.8978945117396725,1.006676331451157
0.09211989600161409,0.016704724794994553,0.9999960549033909,9.063000384834261,0.9023228709322333,1.0018228687321338
0.09396229392164637,0.016639971836041895,0.9999959731998319,9.060682736122569,0.9065591597484544,0.9969686356982717
0.09580469184167865,0.01657514914619631,0.9999958834659962,9.05561671945451,0.9106117083781272,0.9921131563811003
0.09764708976171094,0.01651025085192074,0.9999957844309035,9.047763774234811,0.9144884856664062,0.9872560494382613
0.09948948768174322,0.01644527176378152,0.9999956745847712,9.037121685873714,0.9181971147779593,0.9823969340533979
0.1013318856017755,0.016380206615158675,0.9999955521152123,9.023687391906982,0.9217448881794912,0.9775354267482761
0.10317428352180778,0.016315050057563635,0.9999954148224123,9.007456985259989,0.9251387819696754,0.972671141054008
0.10501668144184007,0.01624979665564814,0.9999952600045976,8.988425715234683,0.9283854695838908,0.9678036871699227
0.10685907936187235,0.016184440881897022,0.9999950843008621,8.966587986347683,0.9314913348995847,0.9629326716095828
0.10870147728190463,0.01611897711099505,0.9999948834715531,8.941937355119242,0.9344624847664156,0.9580576968333515
0.11054387520193691,0.01605339961385459,0.9999946520851732,8.914466524887498,0.9373047609834091,0.9531783608667663
0.1123862731219692,0.015987702551288185,0.9999943830617755,8.884167338700443,0.9400237517430654,0.9482942569038779
0.11422867104200148,0.015921879967306894,0.9999940669896995,8.851030770317974,0.9426248025593007,0.9434049728945739
0.11607106896203376,0.015855925782022745,0.9999936910724843,8.815046913338215,0.9451130266917942,0.9385100911148181
0.11791346688206604,0.015789833784129726,0.9999932374491919,8.776204968444711,0.9474933150725301,0.9336091877185768
0.11975586480209832,0.015723597622935175,0.9999926804052179,8.734493228753559,0.9497703457289592,0.9287018322701064
0.1215982627221306,0.01565721079990928,0.9999919815126731,8.689899063220654,0.9519485926774819,0.92378758725513
0.12344066064216289,0.015590666659716784,0.9999910806540331,8.642408898046137,0.9540323342204363,0.9188660075692918
0.12528305856219515,0.01552395838069049,0.9999898781913753,8.592008195980247,0.9560256604939085,0.9139366399821386
0.12712545648222742,0.015457078964701113,0.9999881960863531,8.538681433378711,0.9579324799148279,0.9089990225747303
0.1289678544022597,0.01539002122637141,0.9999856818795029,8.482412074739612,0.95975652366215,0.9040526841488353
0.13081025232229196,0.015322777781573428,0.999981525770992,8.423182544177063,0.961501345799106,0.899097143605607
0.13265265024232423,0.015255341035133348,0.9999733625857423,8.360974192617073,0.963170311119474,0.894131909291809
0.1344950481623565,0.015187703167699242,0.9999500878707578,8.295767260345997,0.9647665358974115,0.8891564783130107
0.13633744608238876,0.015119856139445194,0.9993623367121176,8.227541701345903,0.9662925196294238,0.8841703358242318
0.13817984400242103,0.015051866444794226,2.774716960477843e-05,8.159948592942499,0.967726826546704,0.8791729551900608
0.1400222419224533,0.014983109761036631,1.0851067776747036e-05,8.060617180135779,0.891304002717485,0.8741671886913454
0.14186463984248557,0.014914047307152727,5.704936400059116e-06,7.949912522500458,0.8209153037842639,0.8691570168144556
0.14370703776251784,0.01484464396833444,3.370830758608087e-06,7.825427093164524,0.7560851152995652,0.8641439486209573
0.1455494356825501,0.01477485789382855,2.119697574388688e-06,7.684183586933459,0.6963746783966327,0.8591300738165322
0.14739183360258237,0.01470464019364549,1.3856814123166167e-06,7.5225821142291736,0.6413797484493555,0.8541182243181309
0.14923423152261464,0.014633935783567637,9.305726801463481e-07,7.336405334889954,0.590727961187261,0.8491121762665673
0.1510766294426469,0.01456268640827582,6.378750310952313e-07,7.120932006790302,0.5440763408337367,0.8441169012003197
0.15291902736267918,0.014490837349341371,4.4472623043087525e-07,6.871225906615705,0.5011089887746729,0.8391388765854318
0.15476142528271145,0.014418349767250677,3.1481442380976985e-07,6.5826727696469165,0.46153494938703093,0.8341864676180366
0.1566038232027437,0.014345220744719578,2.2611746792214194e-07,6.251814194201254,0.4250862422737637,0.8292703941750068
0.15844622112277598,0.01427151241919011,1.6479603195422388e-07,5.877451167868752,0.3915160489338564,0.8244042988183322
0.16028861904280825,0.014197389608442692,1.2192088671208232e-07,5.461849242421818,0.36059704215702754,0.8196054333215509
0.16213101696284052,0.014123161977901193,9.161583235081969e-08,5.011703188763358,0.3321198470952969,0.8148954816053945
0.1639734148828728,0.01404932324876791,6.995513091397571e-08,4.538413095624897,0.30589162372409645,0.8103015389500714
0.16581581280290505,0.01397657934975807,5.4284677869461915e-08,4.057337582866579,0.2817347611658247,0.8058572954834768
0.16765821072293732,0.013905864252419874,4.279169673462902e-08,3.5860894515518913,0.2594856750750192,0.8016046379214474
0.1695006086429696,0.01383835680012947,3.4227234467663925e-08,3.1423421227061548,0.2389936999655308,0.7975965003791763
0.17134300656300186,0.013775516183206556,2.773036506732315e-08,2.7412951569853874,0.22012006899375908,0.7939030954663658
0.17318540448303413,0.013719106704936701,2.2723426121185372e-08,2.3919231713728837,0.20273697429918128,0.790623394361716
0.1750278024030664,0.01367107604363778,1.883762368602712e-08,2.0926439238452508,0.18672670154580406,0.7878927203588062
0.17687020032309866,0.013633089436157698,1.58193100646186e-08,1.8330810648749143,0.1719808328069531,0.785851801434894
0.17871259824313093,0.013605700752463482,1.343873386686717e-08,1.6047832200470147,0.15839951239448669,0.7845572969384284
0.1805549961631632,0.013587807094996695,1.1479138808685948e-08,1.4065104288407722,0.1458907706616231,0.7839203177517959
0.18239739408319547,0.01357362056128756,9.766562736725966e-09,1.1707506518339255,0.1343699012072821,0.7837631327741662
0.18423979200322774,0.013560042573342923,8.126451261798377e-08,0.9317691978658055,0.1237588872677976,0.7837631030562963
0.18461961630541768,0.013569408092355498,7.976033669934223e-08,1.0936975087189975,0.12167779342693791,0.7837631030562958
0.18499944060760762,0.01357060116193105,7.83252142993556e-08,1.0949128023107138,0.11963169748693865,0.7838475353798775
0.18537926490979756,0.013572760907592801,7.69554625472089e-08,1.103823735915986,0.11762001088638609,0.7839724751146342
0.1857590892119875,0.013575996843979242,7.568681106584945e-08,1.113886683418687,0.11564215496169002,0.7841735337039457
0.18613891351417744,0.013580586291402266,7.455836324420954e-08,1.1143173774480752,0.11369756078129455,0.7845160414178199
0.18651873781636738,0.013587354869082415,7.358576180279869e-08,1.1063381127433694,0.1117856689820698,0.7850568394069856
0.18689856211855732,0.01359681209353711,7.276145432615111e-08,1.094804045385926,0.10990592960800508,0.7858142621217737
0.18727838642074726,0.013609094580258947,7.207066616467982e-08,1.0823104318316694,0.10805780195161765,0.7867879048546604
0.1876582107229372,0.013624187245115597,7.149866741373522e-08,1.0699968283341763,0.10624075439829879,0.7879719027098864
0.18803803502512714,0.013642020706942207,7.103247953860027e-08,1.0583557539461537,0.10445426427339866,0.7893589540416934
0.18841785932731708,0.013662506577052492,7.06610574438764e-08,1.0475891508029223,0.10269781769191146,0.7909415250918509
0.18879768362950702,0.013685551038185424,7.037510677569117e-08,1.037761481050986,0.10097090941069224,0.7927122484567922
0.18917750793169696,0.013711060472585149,7.016683608090029e-08,1.0288696177945935,0.09927304268315514,0.7946640607457517
0.1895573322338869,0.013738943893322291,7.002972319398553e-08,1.020876876924226,0.09760372911641142,0.7967902450723603
0.18993715653607685,0.013769113977895098,6.995831446845132e-08,1.013730482052062,0.09596248853080609,0.7990844356950996
0.19031698083826679,0.013801487449967776,6.994805777873851e-08,1.0073708723415273,0.0943488488218131,0.8015406069362305
0.19069680514045673,0.013835985143711722,6.999516532683426e-08,1.001736773600487,0.09276234582425048,0.8041530556864647
0.19107662944264667,0.01387253191070984,7.009650141830619e-08,0.9967679721845684,0.09120252317877658,0.8069163816623803
0.1914564537448366,0.013911056449941029,7.024949074545627e-08,0.9924068013478408,0.08966893220062955,0.809825467356687
0.19183627804702655,0.01395149110296851,7.045204340300816e-08,0.988598888587796,0.08816113175057273,0.8128754585946878
0.1922161023492165,0.013993771636947455,7.070249355449709e-08,0.9852934727882188,0.08667868810800924,0.8160617461134404
0.19259592665140643,0.014037837027733287,7.099954927193318e-08,0.9824434700987026,0.08522117484622892,0.8193799483311159
0.19297575095359637,0.014083629249710515,7.134225157045905e-08,0.9800053946270888,0.08378817270975307,0.8228258953467829
0.1933555752557863,0.014131093075776943,7.172994106237521e-08,0.9779391978945163,0.0823792694937406,0.826395614145675
0.19373539955797625,0.014180175889093694,7.216223097669342e-08,0.9762080660204523,0.08099405992542204,0.8300853149525765
0.1941152238601662,0.014230827507155765,7.26389855470195e-08,0.9747781984733341,0.07963214554752698,0.833891378661153
0.19449504816235613,0.01428300001812819,7.316030297574513e-08,0.9736185828994673,0.07829313460367124,0.8378103452618597
0.19487487246454607,0.014336647629046873,7.37265023474671e-08,0.97270077472315,0.0769766419256717,0.8418389031911097
0.195254696766736,0.014391726525294779,7.433811399819195e-08,0.9719986865451875,0.07568228882275557,0.8459738795271898
0.19563452106892595,0.014448194740672403,7.499587295632398e-08,0.9714883900482986,0.07440970297263284,0.850212230962687
0.1960143453711159,0.01450601203734703,7.570071516222694e-08,0.9711479316520397,0.07315851831440044,0.8545510354880248
0.19639416967330584,0.014565139794966408,7.645377624971995e-08,0.9709571622412955,0.07192837494324728,0.8589874847257537
0.19677399397549578,0.014625540908244085,7.725639273873311e-08,0.9708975807262967,0.07071891900693014,0.8635188768601775
0.19715381827768572,0.014687179692357274,7.811010554635915e-08,0.970952190855515,0.06952980260399055,0.8681426101116255
0.19753364257987566,0.014750021795537388,7.901666577605807e-08,0.9711053705145322,0.06836068368368341,0.8728561767090902
0.1979134668820656,0.014814034118275674,7.997804279379765e-08,0.9713427526523402,0.06721122594758851,0.8776571573190589
0.19829329118425554,0.014879184738608716,8.099643464721458e-08,0.971651116946447,0.06608109875287696,0.8825432158921312
0.19867311548644548,0.014945442842989959,8.207428093106532e-08,0.9720182913271239,0.06496997701720451,0.8875120948924675
0.19905293978863542,0.015012778662292867,8.321427825085701e-08,0.9724330625138141,0.06387754112520433,0.8925616108782422
0.19943276409082536,0.015081163412528771,8.441939848816662e-08,0.972885094763171,0.06280347683655288,0.8976896504041516
0.1998125883930153,0.015150569239896994,8.569291012741106e-08,0.9733648560817691,0.06174747519558196,0.9028941662196026
0.20019241269520524,0.015220969169817317,8.70384029665351e-08,0.9738635512128975,0.06070923244241115,0.9081731737385723
0.20057223699739518,0.015292337059624397,8.845981660528677e-08,0.9743730607632088,0.05968844992557531,0.9135247477592572
0.20095206129958512,0.015364647554631194,8.996147318685314e-08,0.9748858858897532,0.05868483401612185,0.9189470194135664
0.20133188560177506,0.015437876047293353,9.154811496449194e-08,0.9753950980196446,0.057698096023152956,0.9244381733282571
0.201711709903965,0.01551199863922965,9.322494737789783e-08,0.9758942931234257,0.05672795211078922,0.9299964449811132
0.20209153420615494,0.015586992105874182,9.499768845865109e-08,0.9763775501079591,0.05577412321653001,0.9356201182369892
0.20247135850834488,0.01566283386355531,9.687262554552441e-08,0.9768393929361685,0.05483633497098798,0.9413075230498568
0.20285118281053482,0.01573950193881372,9.885668048531433e-08,0.9772747561187283,0.05391431761897394,0.9470570333181754
0.20323100711272477,0.015816974939787648,1.0095748473162363e-07,0.9776789532571224,0.053007805941910305,0.9528670648819759
0.2036108314149147,0.015895232029508065,1.0318346604333286e-07,0.9780476483488284,0.05211653918155048,0.9587360736510306
0.20399065571710465,0.015974252900959413,1.0554394884003408e-07,0.9783768295934985,0.05124026096498244,0.9646625538543586
0.2043704800192946,0.01605401775377384,1.0804927071110534e-07,0.9786627854646419,0.05037871923089532,0.9706450364021376
0.20475030432148453,0.01613450727243741,1.1071091812124089e-07,0.9789020828341903,0.0495316661570879,0.9766820873518035
0.20513012862367447,0.016215702605897043,1.1354168503800798e-07,0.97909154695822,0.048698858089198396,0.9827723064708099
0.2055099529258644,0.016297585348465905,1.1655585906567048e-07,0.9792282431506778,0.047880055470635625,0.988914325889114
0.20588977722805435,0.01638013752192345,1.1976944075512974e-07,0.9793094598257025,0.047075022773691584,0.9951068088350055
0.2062696015302443,0.01646334155774081,1.2320040288506787e-07,0.9793326763900362,0.046283528431816136,1.0013484484468773
0.20664942583243423,0.016547180275804343,1.2686899779136378e-07,0.979295485934088,0.04550534477303512,1.007637966521332
0.20702925013462417,0.01663163687624024,1.3079812628189843e-07,0.9791957288986104,0.04474024795449323,1.0139741123137878
0.2074090744368141,0.016716694927116606,1.3501378131743877e-07,0.9790314500345931,0.04398801789810401,1.0203556618085872
0.20778889873900405,0.016802338349836958,1.3954558325595442e-07,0.9788008515933126,0.043248438227289396,1.0267814168322646
0.208168723041194,0.01688855140688515,1.4442743050598815e-07,0.9785022832224415,0.04252129620479212,1.03325020418116
0.20854854734338393,0.016975318690294446,1.4969829574251547e-07,0.9781342326454563,0.04180638267154492,1.0397608747996852
0.20892837164557387,0.01706262511079184,1.5540320710914492e-07,0.9776953170547282,0.04110349198658116,1.0463123030058872
0.20930819594776381,0.01715045588757188,1.615944665286842e-07,0.9771842751551904,0.04041242196797248,1.0529033857611758
0.20968802024995375,0.017238796538658247,1.6833317473594254e-07,0.9765999598013448,0.039732973834780166,1.0595330419813362
0.2100678445521437,0.01732763287181385,1.7569115703099664e-07,0.9759413311756523,0.03906495215000845,1.0662002118861296
