Time [s],Lmtc [m],STIM [ ],Fsee [N],Gamma [ ],Lcerel [ ]
0.0,0.021735084076572212,0.9999995921732506,1.6194166252536881,0.09086019360630102,1.3943513869638946
0.004285997890877586,0.02168077880220525,0.9999990573419258,3.4014295240632144,0.17996389975531146,1.385288777774525
0.008571995781755172,0.021557769412633918,0.9999982321458705,4.210573204008584,0.26033460179412143,1.3742488654348368
0.012857993672632757,0.021425079030402742,0.9999972977753488,4.720601912905836,0.33282818294695554,1.3632413684306932
0.017143991563510343,0.021293304565271787,0.9999963698871343,5.134253781855444,0.3982166600663174,1.3525428163882498
0.02142998945438793,0.021164446142161977,0.9999955119347418,5.503144875828623,0.45719639685676494,1.3421782448836541
0.025715987345265517,0.021038776562068037,0.9999947536074358,5.843344140403273,0.510395513436543,1.3321276392740744
0.030001985236143103,0.02091613496309573,0.9999941046218596,6.162050173697747,0.558380571503776,1.3223598198466628
0.03428798312702069,0.020796264586371245,0.9999935636499483,6.463029274275168,0.6016626056489041,1.312844788662357
0.03857398101789827,0.020678900097963124,0.9999931236776879,6.748491364422022,0.6407025644201335,1.3035558227176678
0.04285997890877586,0.02056380514279647,0.9999927751256763,7.0205148280004135,0.6759162186415261,1.2944693737893966
0.04714597679965345,0.02045076137342107,0.9999925076246612,7.279614513214053,0.707678588978321,1.2855663697223312
0.051431974690531033,0.020339570564416688,0.9999923109435759,7.526918594742687,0.73632793973569,1.2768285792372067
0.05571797258140862,0.020230062517461962,0.9999921754747954,7.763319009941283,0.7621693813208287,1.2682405552289344
0.06000397047228621,0.02012208942756099,0.9999920924615172,7.989518784670001,0.7854781196794457,1.259789056900785
0.0642899683631638,0.020015520720537573,0.9999920540695657,8.206059778770465,0.8065023872810025,1.2514625613840258
0.06857596625404137,0.019910239833154778,0.9999920533762094,8.413410956309226,0.825466086848501,1.2432508457274543
0.07286196414491895,0.019806142341195026,0.9999920843168516,8.61199262431268,0.8425711759782641,1.235144783311186
0.07714796203579653,0.019703134298176925,0.9999921416122654,8.802176648485405,0.8579998180406492,1.2271361988496623
0.08143395992667411,0.019601130976767783,0.9999922206889735,8.98430567962684,0.8719163222663244,1.2192177295357698
0.08571995781755169,0.019500055284969568,0.9999923175998422,9.15866547641455,0.8844688936791243,1.2113827338553043
0.09000595570842927,0.01939983701525337,0.9999924289488754,9.325536745072126,0.8957912115122119,1.203625149136948
0.09429195359930685,0.019300411775178848,0.9999925518222681,9.485154591611701,0.9060038529181216,1.19593946183471
0.09857795149018443,0.01920172044816072,0.9999926837263913,9.63775038515809,0.9152155771358615,1.1883206000250037
0.10286394938106201,0.01910370891596417,0.999992822532786,9.783547912461868,0.9235244837921976,1.1807639132185033
0.10714994727193959,0.019006326530369957,0.9999929664291233,9.922696283070456,0.9310190576737699,1.1732651463451025
0.11143594516281717,0.018909526189423778,0.999993113876083,10.05537808397765,0.9377791110974928,1.1658202898710683
0.11572194305369475,0.01881326393032602,0.9999932635699157,10.181744504073809,0.9438766339160893,1.1584256368827492
0.12000794094457233,0.01871749908595385,0.9999934144099948,10.301967794054223,0.9493765602118889,1.1510777198541156
0.12429393883544991,0.018622193037100433,0.9999935654704026,10.416145948359162,0.9543374598446747,1.1437733447118519
0.1285799367263275,0.018527309400043945,0.9999937159751673,10.524411307812473,0.9588121622189304,1.1365094544045586
0.13286593461720508,0.018432813379449905,0.9999938652767315,10.626849581580515,0.9628483189139553,1.1292831885398291
0.13715193250808266,0.018338671787698275,0.9999940128371465,10.723561280039902,0.9664889111691369,1.1220918002450215
0.14143793039896024,0.01824485355730843,0.9999941582124379,10.81467101552107,0.9697727076293338,1.1149326816843808
0.14572392828983782,0.01815132921928931,0.9999943010392712,10.900266694409796,0.972734677225625,1.1078034049460244
0.1500099261807154,0.018058070145400916,0.9999944410233359,10.980402905542174,0.9754063615887912,1.1007016588842085
0.15429592407159298,0.017965048019943183,0.9999945779286429,11.0551121598649,0.9778162109618355,1.0936251932610068
0.15858192196247056,0.017872235133477025,0.9999947115677514,11.12444833492924,0.9799898871890583,1.0865717829430077
0.16286791985334814,0.01777959859283316,0.9999948417937468,11.188083765618456,0.9819505370085625,1.0795393190500377
0.16715391774422572,0.01768711246984732,0.9999949684937393,11.245970455705589,0.9837190385588903,1.0725258531968802
0.1714399156351033,0.01759475397085795,0.9999950915833358,11.298154709289827,0.9853142237251893,1.065529555863247
0.17572591352598088,0.01750250021146395,0.9999952110022347,11.344647971853039,0.9867530786929469,1.058548642928155
0.18001191141685846,0.017410327615313095,0.9999953267099265,11.385433441589909,0.9880509248452621,1.0515813212453922
0.18429790930773604,0.017318212017646828,0.9999954386816096,11.42050509188172,0.9892215819302587,1.0446257455319552
0.18858390719861362,0.017226129503835202,0.9999955469041796,11.44990056999706,0.9902775152368904,1.0376800388439373
0.1928699050894912,0.017134057046340117,0.9999956513715114,11.473681399938965,0.9912299683492757,1.0307423660374802
0.19715590298036878,0.017041972352964414,0.9999957520780123,11.491892122407613,0.9920890829041851,1.0238109748632993
0.20144190087124636,0.01694985343774289,0.9999958490051861,11.504554341781295,0.992864006661458,1.0168841710938183
0.20572789876212394,0.01685767863245481,0.9999959420935577,11.511693946322024,0.9935629911252467,1.0099602841369542
0.21001389665300152,0.016765426867685573,0.9999960311928024,11.513350123239825,0.9941934799319676,1.0030376764210498
0.2142998945438791,0.016673079362656218,0.9999961159963565,11.509655306327309,0.9947621892264481,0.9961147672311531
0.21858589243475668,0.016580611408819175,0.9999961959619865,11.500079098651673,0.9952751812105778,0.9891903886766212
0.22287189032563426,0.016488006715809893,0.9999962702153604,11.484499360777061,0.9957379318598313,0.9822634853957296
0.22715788821651184,0.016395250253908356,0.9999963375055788,11.462925967434074,0.9961553933835733,0.9753329329201487
0.23144388610738942,0.01630232750854799,0.9999963962505087,11.43538642353481,0.9965320513955949,0.9683976287756435
0.235729883998267,0.016209224291719386,0.9999964446861916,11.401890122741149,0.9968719761304511,0.9614565243997981
0.24001588188914458,0.016115925329589626,0.9999964811166928,11.362366662634264,0.99717886665496,0.9545085992468823
0.24430187978002216,0.01602241685721477,0.9999965042437504,11.316914006662092,0.9974560871000574,0.9475527347350279
0.24858787767089974,0.015928684276384695,0.9999965135385587,11.265449011876083,0.9977066945238047,0.9405879907353463
0.2528738755617773,0.015834711128147005,0.999996509607086,11.20787416936532,0.9979334589586745,0.9336133140496877
0.2571598734526549,0.015740481114796957,0.9999964944861939,11.14421005194635,0.9981388772135589,0.9266275178021138
0.2614458713435325,0.01564597783670475,0.999996471773094,11.074428869360435,0.9983251828024947,0.9196294781264139
0.26573186923441006,0.015551183898826416,0.9999964464643007,10.998462281149628,0.9984943547572225,0.9126180581780055
0.27001786712528764,0.015456081158847595,0.9999964243999321,10.916264760340466,0.9986481279805836,0.9055920445435498
0.2743038650161652,0.015360650922669312,0.9999964113181236,10.827793601744931,0.9987880072537247,0.898550188492023
0.2785898629070428,0.015264873908594264,0.9999964117155092,10.733001085854783,0.9989152861299501,0.8914912143036318
0.2828758607979204,0.015168730297453956,0.9999964278806656,10.631841448625812,0.9990310708737459,0.884413814585303
0.28716185868879796,0.015072199360338002,0.9999964594690699,10.524245431579505,0.9991363085035495,0.8773166573323824
0.29144785657967553,0.014975259828742534,0.9999965037682634,10.410168723136303,0.9992318170667079,0.8701983499696128
0.2957338544705531,0.014877889586702876,0.9999965564873823,10.28954099959422,0.9993183157130647,0.8630574857280262
0.3000198523614307,0.014780065449981422,0.9999966127120734,10.162285133032245,0.9993964520797937,0.8558926030333993
0.3043058502523083,0.01468176330050063,0.9999966676925166,10.028331410892449,0.9994668249675388,0.8487021777458554
0.30859184814318585,0.01458295766760548,0.9999967172974946,9.887583573718574,0.9995300011353846,0.8414846401636649
0.31287784603406343,0.014483621573969456,0.9999967581385142,9.739943105080078,0.9995865260201838,0.8342383327122654
0.317163843924941,0.014383726864140009,0.9999967874574086,9.585328192329682,0.9996369290366228,0.8269615102488277
0.3214498418158186,0.014283243839728864,0.9999968028800639,9.423631449883791,0.9996817246648169,0.8196523743463898
0.3257358397066962,0.014182141086843108,0.9999968021073725,9.254742788371074,0.9997214107347981,0.8123090319867969
0.33002183759757375,0.01408038547399906,0.9999967825688242,9.078551910804032,0.9997564652306818,0.8049294954018873
0.33430783548845133,0.013977941205239916,0.9999967410232014,8.894899353594107,0.9997873426722523,0.7975116866400742
0.3385938333793289,0.013874770486126538,0.999996673049723,8.703674239018946,0.9998144708000362,0.7900533514772347
0.3428798312702065,0.013770833375910008,0.9999965723163717,8.50474367207048,0.9998382479726686,0.7825521556875392
0.34716582916108407,0.01366608706323691,0.999996429411909,8.297946182724887,0.9998590414241485,0.7750056489503853
0.35145182705196165,0.01356048554803935,0.9999962298158984,8.083115135817977,0.9998771863308484,0.767411215603945
0.35573782494283923,0.013453979425264781,0.9999959500811719,7.860077624446878,0.999892985483994,0.7597660702529813
0.3600238228337168,0.013346515135356878,0.9999955500115523,7.628630717616353,0.999906709202294,0.7520672512769778
0.3643098207245944,0.01323803489828843,0.9999949548451789,7.3885831206726476,0.9999185948366125,0.7443115667570238
0.36859581861547197,0.013128475990814476,0.9999940084750342,7.139713582674287,0.9999288444872229,0.7364956241082644
0.37288181650634955,0.013017769901541972,0.9999923223314109,6.881781640262299,0.9999376171871155,0.7286157745548435
0.37716781439722713,0.012905841578814551,0.9999885877022915,6.614532394489156,0.9999450021612357,0.7206680788632625
0.3814538122881047,0.012792608529388742,0.9999739062625761,6.337693287496059,0.9999509032321996,0.7126482824584672
0.3857398101789823,0.012678319094074509,2.5514421639073286e-05,6.0653357855763,0.9999540344439707,0.7045517829121163
0.39002580806985987,0.012560549468905568,4.071962671968931e-06,5.682925516241269,0.8257866043560224,0.6964054946194135
0.39431180596073745,0.012440697124380529,1.431065078160711e-06,5.2282406595615285,0.6819522049578108,0.6882639781183557
0.39859780385161503,0.012318383707263365,6.232970453969022e-07,4.6704812380634575,0.5631706546064708,0.680182602494902
0.4028838017424926,0.012193621094664826,3.095531144198708e-07,3.989299310455048,0.46507852670461075,0.6722525753506362
0.4071697996333702,0.012067925516721707,1.723141670532659e-07,3.2093842089417803,0.38407219013338467,0.6646193969866241
0.41145579752424777,0.011946048415274168,1.0670603590867152e-07,2.4279736996062917,0.3171756447831666,0.6575120352273552
0.41574179541512535,0.011837579220196202,7.241218137189233e-08,1.7856359496383751,0.26193123680459246,0.6513113655688015
0.42002779330600293,0.011755528372611117,5.319111015735601e-08,1.3190703444530631,0.2163093834606455,0.6467945486467697
0.4243137911968805,0.01170953914592756,4.1311667925988484e-08,0.9260524142849496,0.17863401519921163,0.6449692139133906
0.4285997890877581,0.011683517839670407,2.658783737425805e-07,0.5455681196281791,0.1475210016353372,0.6449690204179835
0.4293137911968805,0.011696814793459652,2.5806885509474213e-07,0.7275126092242497,0.1428922490461434,0.6449690204179832
0.43002779330600294,0.011703585656551767,2.519502993057429e-07,0.7195831613291563,0.1384087422539668,0.6455176229295886
0.43074179541512536,0.01171611861294155,2.4721103353900025e-07,0.7050396108428384,0.1340659236309942,0.6465329930269729
0.4314557975242478,0.011735023295816377,2.4363088688250775e-07,0.6904985883476661,0.12985937855384386,0.6480271190617132
0.4321697996333702,0.011760070257712562,2.409891564726514e-07,0.6777743103759487,0.12578483091908782,0.649973192117023
0.43288380174249264,0.01179088390761359,2.391167528521478e-07,0.6671709873288404,0.12183813879660522,0.6523411617627113
0.43359780385161506,0.011827081653572576,2.3788785803771852e-07,0.6585653971795333,0.1180152902209656,0.6551027335871337
0.4343118059607375,0.011868304741208787,2.3720868991954442e-07,0.6517180014723848,0.11431239911461294,0.6582320870108204
0.4350258080698599,0.011914224283527845,2.3700887528436497e-07,0.6463744750844351,0.11072570133862443,0.6617057845292149
0.43573981017898233,0.011964540666429699,2.3723527959708933e-07,0.6422981607492984,0.10725155086712111,0.6655025391593837
0.43645381228810476,0.012018980969569357,2.3784763127499786e-07,0.6392811881350074,0.10388641608152951,0.6696029467311526
0.4371678143972272,0.012077296114995844,2.3881539581377413e-07,0.6371442405327455,0.10062687618098798,0.6739892616719828
0.4378818165063496,0.01213925798618847,2.4011551298027984e-07,0.6357353057473556,0.09746961770529337,0.6786451790156204
0.43859581861547203,0.01220465698812851,2.417307644387779e-07,0.6349264338040498,0.09441143116688341,0.6835556628590715
0.43930982072459446,0.012273299835123496,2.436485541160047e-07,0.6346093254755683,0.09144920778845315,0.6887068002636778
0.4400238228337169,0.012345007576129156,2.4586000915548167e-07,0.6346938207902576,0.08857993634290401,0.6940856585156782
0.4407378249428393,0.012419614031401663,2.4835930742768696e-07,0.6351034836075888,0.08580070009242363,0.6996801901391493
0.44145182705196173,0.012496964309298118,2.511431732662542e-07,0.6357750280392083,0.08310867382359419,0.7054791235731475
0.44216582916108416,0.012576913728647166,2.54210508317639e-07,0.6366550599032842,0.08050112097551985,0.7114718994417315
0.4428798312702066,0.012659326689240821,2.5756209070024796e-07,0.6376982990628555,0.07797539085805986,0.7176485951211713
0.443593833379329,0.012744075766662522,2.612003674544991e-07,0.6388674510743612,0.075528915957341,0.7239998573196819
0.44430783548845143,0.01283104101751646,2.6512929582793837e-07,0.6401303417234134,0.07315920932581498,0.7305168655246588
0.44502183759757385,0.012920109249928136,2.6935423359282387e-07,0.641460933357997,0.07086386205420718,0.737191271716812
0.4457358397066963,0.013011173554356407,2.738818619881912e-07,0.6428363138569637,0.06864054082279124,0.7440151816325467
0.4464498418158187,0.01310413268529309,2.7872013072737387e-07,0.6442379954703564,0.06648698552949904,0.7509811013562112
0.44716384392494113,0.013198890739029778,2.838782411521979e-07,0.6456499987978548,0.06440100699245709,0.7580819236528892
0.44787784603406355,0.013295356678484468,2.8936662852673136e-07,0.6470586561996118,0.06238048472461475,0.7653108934524798
0.448591848143186,0.01339344401885765,2.951969834357391e-07,0.6484531458967211,0.0604233647782019,0.7726615814434635
0.4493058502523084,0.013493070600213987,3.0138228165262764e-07,0.6498237050801295,0.05852765765682629,0.7801278767730951
0.4500198523614308,0.013594158223489654,3.0793681871530327e-07,0.6511623622379804,0.056691436293088315,0.787703955822438
0.45073385447055325,0.013696632454456927,3.148762701284511e-07,0.6524622921405026,0.054912834089657483,0.7953842710456362
0.4514478565796757,0.013800422401524586,3.222177627979984e-07,0.6537178809382662,0.05319004302182006,0.8031635339924911
0.4521618586887981,0.013905460534158465,3.299799591225871e-07,0.6549242336162968,0.05152131179956908,0.8110367043849287
0.4528758607979205,0.01401168248704918,3.381831545297528e-07,0.6560773461526663,0.0499049440873692,0.8189989745272469
0.45358986290704295,0.01411902693704242,3.468494000779534e-07,0.657174064563746,0.048339296779786545,0.8270457603247775
0.4543038650161654,0.01422743543207583,3.560026192103016e-07,0.6582109615553198,0.046822778331231815,0.8351726945191807
0.4550178671252878,0.014336852176151143,3.656687519108256e-07,0.6591858417226271,0.04535384713811802,0.8433756024711453
0.4557318692344102,0.014447224016054711,3.758759343826273e-07,0.6600966561804745,0.043931009971789114,0.8516505070237328
0.45644587134353265,0.014558500301354343,3.8665468783845737e-07,0.6609419201169011,0.04255282046062767,0.8599936157667301
0.4571598734526551,0.014670632757762554,3.9803811576333235e-07,0.6617196281392826,0.041217877619798546,0.8684013173679722
0.4578738755617775,0.01478357532205386,4.100621430425434e-07,0.6624289739130922,0.0399248244271339,0.8768701599673543
0.4585878776708999,0.014897284140013262,4.2276578409218733e-07,0.6630684112649837,0.038672346443713396,0.8853968614319199
0.45930187978002235,0.015011717388353309,4.3619144214733617e-07,0.6636375155054672,0.03745917047773748,0.8939782860214474
0.4600158818891448,0.01512683527212686,4.5038524420575013e-07,0.6641349400785588,0.03628406329033669,0.902611455148816
0.4607298839982672,0.015242599843570298,4.6539742019001213e-07,0.6645605312689671,0.035145830342001944,0.9112935224654649
0.4614438861073896,0.015358975028251894,4.812827347229524e-07,0.6649131802509872,0.03404331457836246,0.9200217873274628
0.46215788821651205,0.015475926443609657,4.981009675251498e-07,0.6651928104449087,0.032975395254078714,0.9287936705465224
0.46287189032563447,0.015593421420608187,5.159174663654379e-07,0.6653984957832093,0.031940986793655375,0.9376067260863199
0.4635858924347569,0.015711428846020604,5.348037696328616e-07,0.6655302477860681,0.03093903768801834,0.9464586196715116
0.4642998945438793,0.01582991919733809,5.548383294507423e-07,0.6655874766670098,0.029968529425735684,0.9553471396397967
0.46501389665300175,0.01594886436259936,5.761072928087534e-07,0.6655694967058909,0.02902847545779869,0.9642701807234627
0.46572789876212417,0.016068237616887086,5.987054559898042e-07,0.6654764805635094,0.028117920194911494,0.9732257371842997
0.4664419008712466,0.016188013645517474,6.227373392849764e-07,0.6653078442738701,0.02723593803627497,0.9822119131908035
0.467155902980369,0.016308168361423386,6.483183830829835e-07,0.6650630740126077,0.02638163242888008,0.9912269046989536
0.46786990508949144,0.016428678907282827,6.755763973739816e-07,0.6647423438574139,0.025554134956357333,1.000268996307648
0.46858390719861387,0.01654952365351884,7.046531886214561e-07,0.6643449859052626,0.024752604456462764,1.0093365692939438
0.4692979093077363,0.01667068204466774,7.35706443276989e-07,0.6638706614185301,0.023976226166307568,1.018428083824732
0.4700119114168587,0.016792134585307247,7.689119715844476e-07,0.6633188166709773,0.02322421089446854,1.0275420808147908
0.47072591352598114,0.0169138627954372,8.044663501446158e-07,0.6626896583657425,0.022495794219147595,1.0366771733561062
0.47143991563510357,0.017035849240291598,8.425900145944687e-07,0.6619827015943873,0.02179023571157501,1.045832056731827
0.472153917744226,0.017158077382998682,8.835308694613662e-07,0.6611976315219503,0.021106818183878773,1.0550054927507777
0.4728679198533484,0.017280531558592722,9.275686111601415e-07,0.6603339776233158,0.020444846960668287,1.064196309546068
0.47358192196247084,0.017403196956379208,9.750199318363404e-07,0.6593919610382013,0.019803649173610775,1.073403395704212
0.47429592407159327,0.01752605963718516,1.0262447213148889e-06,0.6583710020719111,0.019182573078306543,1.0826257095721679
0.4750099261807157,0.017649110377683293,1.0816535114180618e-06,0.6573264931775263,0.018580987392794693,1.0918622621525103
0.4757239282898381,0.017772391333935485,1.141716561959317e-06,0.6570192293537196,0.017998280657049528,1.1011121200530278
0.47643793039896054,0.017895908335832933,1.2069750108832229e-06,0.6576944928284605,0.017433860612860397,1.110374398168238
0.47715193250808297,0.018019650513512904,1.2780545549987374e-06,0.6593557095453293,0.01688715360352037,1.1196482707977002
