Time [s],Lmtc [m],STIM [ ],Fsee [N],Gamma [ ],Lcerel [ ]
0.0,0.02065978640472545,0.9999998237173502,1.2294144835167795,0.06602926419513427,1.3151144979790879
0.002312338782296971,0.020703901856836,0.9999997894620699,2.21433043205541,0.1165856428240814,1.315114497967404
0.004624677564593942,0.020657126961364736,0.9999996731775789,3.434717453576654,0.16440537293042215,1.3084186285065118
0.0069370163468909125,0.020583246782417595,0.9999995125584678,4.229643638611509,0.20963658647657663,1.301102309353246
0.009249355129187883,0.02049780289202865,0.9999993210214911,4.7439028339085425,0.25241939899466115,1.2936328863495856
0.011561693911484854,0.020407808393625444,0.9999991111858306,5.111258536665475,0.2928863422064401,1.286159611841272
0.013874032693781825,0.020316231114285033,0.9999988933855448,5.4007788399723955,0.33116277449629183,1.2787387185694963
0.016186371476078796,0.020224368945587438,0.999998675460115,5.645763104392188,0.36736726908450856,1.2713926495868364
0.018498710258375767,0.020132815310176418,0.9999984630310238,5.8628556341941795,0.40161198117721,1.2641296880451092
0.020811049040672738,0.020041846868957658,0.9999982599203809,6.0608891737837975,0.4340029952571829,1.2569516204259705
0.02312338782296971,0.019951588431843463,0.9999980685649202,6.244852519065522,0.4646406535983272,1.2498571014764617
0.02543572660526668,0.019862088103388124,0.999997890370984,6.417734742894376,0.49361986701982535,1.2428432612009632
0.02774806538756365,0.019773353780009266,0.9999977259983635,6.58142703846606,0.5210304088382237,1.2359065189160752
0.03006040416986062,0.01968537186680634,0.9999975755783693,6.737187144326393,0.5469571929230773,1.2290430119553704
0.03237274295215759,0.019598117310485583,0.9999974388772248,6.885890386854293,0.5714805367130816,1.2222488261089715
0.03468508173445456,0.019511559165350297,0.9999973154164169,7.028171507855992,0.5946764100038305,1.2155201195381238
0.036997420516751534,0.019425663757963105,0.9999972045602101,7.16450805694311,0.6166166702750613,1.2088531875989414
0.03930975929904851,0.01934039651239062,0.9999971055785832,7.295271231278486,0.6373692852842318,1.2022444941693227
0.04162209808134548,0.019255723005366387,0.9999970176919903,7.420757906697708,0.6569985436143846,1.1956906837686194
0.043934436863642456,0.019171609567888586,0.9999969401027925,7.5412114356692,0.6755652538273528,1.1891885826659112
0.04624677564593943,0.019088023614774206,0.9999968720169674,7.656835531332471,0.6931269328383856,1.1827351937745538
0.048559114428236405,0.019004933809060275,0.999996812658762,7.767803777262578,0.7097379840951213,1.1763276881814282
0.05087145321053338,0.018922310125604067,0.9999967612802425,7.874266298750409,0.7254498661124174,1.1699633950148636
0.053183791992830354,0.018840123853331996,0.9999967171671759,7.976354548513457,0.7403112518848096,1.1636397906705058
0.05549613077512733,0.018758347560665124,0.9999966796422823,8.074184812239464,0.7543681796701991,1.1573544879987223
0.0578084695574243,0.01867695503952592,0.9999966480666241,8.167860827080625,0.7676641956117036,1.151105225802146
0.06012080833972128,0.018595921237656212,0.9999966218396816,8.257475773598367,0.78024048863938,1.1448898588346184
0.06243314712201825,0.0185152221853944,0.9999966003985189,8.343113817074697,0.7921360180696413,1.138706348395614
0.06474548590431523,0.018434834920773014,0.99999658321633,8.42485131910774,0.8033876342975939,1.1325527535545743
0.0670578246866122,0.01835473741532351,0.9999965698005743,8.50275780399992,0.8140301929561531,1.1264272230034644
0.06937016346890917,0.01827490850201959,0.9999965596908496,8.576896739933972,0.8240966628955536,1.1203279875146666
0.07168250225120615,0.018195327806168535,0.9999965524566092,8.647326178165692,0.833618228317751,1.1142533529694971
0.07399484103350312,0.018115975679655998,0.9999965476947957,8.7140992818209,0.8426243853821054,1.108201693916744
0.0763071798158001,0.018036833138688247,0.9999965450274375,8.777264767687198,0.8511430335816111,1.1021714476184155
0.07861951859809707,0.01795788180500923,0.9999965440992414,8.836867278539874,0.8592005621727532,1.0961611085399643
0.08093185738039405,0.01787910385046469,0.9999965445751952,8.89294769931236,0.8668219319267245,1.0901692232436018
0.08324419616269102,0.017800479322489526,0.9999965461381872,8.945408573199026,0.8740307524552828,1.0841943856454779
0.085556534944988,0.017721985654453206,0.9999965484866411,8.993989789409913,0.880849355350774,1.0782352325999467
0.08786887372728497,0.01764360628478211,0.9999965513321535,9.038715078302104,0.8872988633669234,1.0722904397767508
0.09018121250958194,0.017565325196254797,0.9999965543971209,9.079615455216704,0.8933992558546942,1.0663587177994962
0.09249355129187892,0.017487126669070728,0.9999965574123337,9.116718830152081,0.8991694306559442,1.0604388086162366
0.09480589007417589,0.017408995241548656,0.9999965601145082,9.15005015036773,0.9046272626466035,1.0545294820752122
0.09711822885647287,0.01733091567239086,0.9999965622437231,9.179631523991594,0.909789659110748,1.0486295326808581
0.09943056763876984,0.01725287290429388,0.9999965635407178,9.205482326793492,0.9146726121171003,1.0427377765070176
0.10174290642106681,0.017174852028692456,0.9999965637440014,9.227619293891088,0.9192912480602123,1.036853048245896
0.10405524520336379,0.01709683825142991,0.9999965625867104,9.246056597833169,0.9236598745198018,1.030974198372715
0.10636758398566076,0.017018816859152568,0.999996559793136,9.260805914240816,0.9277920245833909,1.0251000904071874
0.10867992276795774,0.01694077318623068,0.9999965550748269,9.271876475966874,0.9317004987695466,1.0192295982539474
0.11099226155025471,0.0168626925820103,0.9999965481261498,9.279275116548778,0.9353974046815849,1.0133616036048465
0.11330460033255169,0.01678456037820216,0.9999965386191537,9.283006303570778,0.938894194514551,1.0074949933866462
0.11561693911484866,0.01670636228175228,0.999996526197938,9.283094455850181,0.9422017005316482,1.0016286572380722
0.11792927789714563,0.016628084540869895,0.9999965104793169,9.279577727953736,0.945330168620003,0.9957615088172721
0.12024161667944261,0.016549707780843165,0.9999964910518475,9.2720158171365,0.9482892900300723,0.9898927284759825
0.12255395546173958,0.016471222195340852,0.999996467457135,9.260374330400404,0.9510882313969236,0.9840216369724379
0.12486629424403656,0.01639261843969501,0.9999964391754355,9.244647920089518,0.9537356631354348,0.9781475520104853
0.12717863302633353,0.01631388701983978,0.9999964056114333,9.224829544856412,0.9562397862976657,0.9722697864771559
0.1294909718086305,0.016235018278112565,0.9999963660764674,9.20091045871967,0.9586083579756557,0.966387647476321
0.13180331059092748,0.016156002378331515,0.9999963197660487,9.172880195848103,0.960848715328188,0.9605004353368213
0.13411564937322445,0.016076829290081546,0.9999962657310847,9.140726551037266,0.9629677983057549,0.9546074425911303
0.13642798815552143,0.015997488772133205,0.9999962028405943,9.104435555810365,0.9649721711438513,0.9487079529203308
0.1387403269378184,0.015917970354910212,0.9999961297327715,9.06399145004249,0.9668680426908024,0.9428012400609006
0.14105266572011538,0.015838263321912002,0.9999960447498489,9.019376648974145,0.9686612856325877,0.9368865666684396
0.14336500450241235,0.015758356689986937,0.9999959458500868,8.970571705446163,0.9703574546734887,0.9309631831331096
0.14567734328470933,0.015678239188340208,0.9999958304868667,8.917555267152988,0.9719618037278382,0.9250303263411138
0.1479896820670063,0.015597899236146812,0.9999956954395329,8.860304028674667,0.9734793021746332,0.9190872183760584
0.15030202084930327,0.015517324918625201,0.9999955365718493,8.798792678008239,0.9749146502231121,0.9131330651534951
0.15261435963160025,0.015436503961409723,0.9999953484790934,8.732993837277222,0.976272293433513,0.9071670549813118
0.15492669841389722,0.015355423703040603,0.9999951239588319,8.662877997251472,0.9775564364327111,0.9011883570379473
0.1572390371961942,0.015274071065367616,0.9999948531931911,8.588413445258988,0.9787710558587767,0.895196119759605
0.15955137597849117,0.015192432521637843,0.9999945224407133,8.509566186014629,0.9799199125605667,0.8891894691267377
0.16186371476078815,0.015110494062008206,0.9999941118564736,8.426299854827036,0.98100656306614,0.8831675068390638
0.16417605354308512,0.015028241156188825,0.9999935916779266,8.33857562257174,0.9820343703123823,0.8771293083672039
0.1664883923253821,0.01494565871288337,0.9999929151428346,8.246352091732348,0.9830065135873685,0.8710739208677233
0.16880073110767907,0.014862731035645251,0.9999920043284027,8.149585182704401,0.9839259975511889,0.8650003609468414
0.17111306988997604,0.014779441774713808,0.9999907190066248,8.048228009412158,0.9847956600019405,0.8589076122564112
0.17342540867227302,0.014695773874328183,0.9999887788141636,7.942230743061558,0.9856181775354836,0.8527946229038146
0.17573774745457,0.014611709514936396,0.9999855299015044,7.83154046241667,0.9863960666858796,0.8466603026553255
0.17805008623686697,0.014527230049615541,0.9999790124698109,7.716100988004918,0.9871316723728091,0.8405035199103813
0.18036242501916394,0.01444231593394639,0.9999594484824862,7.595852697898186,0.9878271065000551,0.8343230984232876
0.18267476380146092,0.014356954485473125,0.9019034497156905,7.471100635761876,0.9884838373672069,0.8281178137611644
0.1849871025837579,0.014271143397285331,1.7988212028678575e-05,7.342391729051,0.979990396119089,0.8218868310135361
0.18729944136605486,0.014184083823013309,7.006522651201787e-06,7.170500331442458,0.8838560674486219,0.8156342574692879
0.18961178014835184,0.01409632259643892,3.538049834757011e-06,6.978318259084022,0.7971514407400722,0.8093658922396261
0.1919241189306488,0.014007751988481535,1.989223568302786e-06,6.760436352148829,0.7189521991121094,0.8030842635439395
0.1942364577129458,0.01391823642798242,1.1869199575597658e-06,6.510110658773508,0.6484241524611404,0.7967930477679902
0.19654879649524276,0.013827611846300188,7.365641456479816e-07,6.2194251397385685,0.5848148296644043,0.7904973617079628
0.19886113527753974,0.01373569359925935,4.7100596754867874e-07,5.879968465863047,0.5274455383214913,0.7842040889825026
0.2011734740598367,0.013642300554900406,3.091331905403913e-07,5.484328848241968,0.4757041493705853,0.7779222301788234
0.20348581284213368,0.013547303891845396,2.0801059203573327e-07,5.0285974396748365,0.42903857566407005,0.7716632672482175
0.20579815162443066,0.013450704856241297,1.435503801164411e-07,4.51561821134104,0.3869508856008671,0.7654415459197915
0.20811049040672763,0.01335273284717366,1.0168639669257476e-07,3.9579054910472395,0.34899199231532607,0.7592747178199798
0.2104228291890246,0.013253938407017562,7.396743341090507e-08,3.3784671257131125,0.3147568629909738,0.753184390603075
0.21273516797132158,0.013155260195132577,5.52024302692754e-08,2.8083292341448955,0.2838801977083706,0.7471975943477799
0.21504750675361856,0.01305811239649976,4.213524593434491e-08,2.2816774191938283,0.2560325319670636,0.7413520544487547
0.21735984553591553,0.012964626688665784,3.2697237135939766e-08,1.829388524797283,0.2309167214201961,0.7357174370111338
0.2196721843182125,0.01287802022743146,2.5648470245062017e-08,1.4658268999652613,0.20826477138339006,0.7304580683038234
0.22198452310050948,0.012802643394278421,2.035678279161926e-08,1.1754452694227229,0.18783497733366394,0.7259075982111208
0.22429686188280645,0.012742733988072031,1.641488986046896e-08,0.9349074741471639,0.16940934590378012,0.7224366488417746
0.22660920066510343,0.012699287874177442,1.3390009950186129e-08,0.7402425994386386,0.15279126883952943,0.7201070102759551
0.2289215394474004,0.012669433358207097,1.092196962451983e-08,0.5916264546455128,0.13780342511728286,0.7186631971547853
0.23123387822969738,0.012659786404725447,9.793799307403552e-08,0.6151524243207949,0.12428588887347082,0.7178073671715752
0.23166457842615606,0.01268303637258884,9.636545448538266e-08,0.9686556832291036,0.12191867394737403,0.7178073671694142
0.23209527862261475,0.012698571332212461,9.536170953607644e-08,0.9568566017945297,0.1195965498852469,0.7190252219797584
0.23252597881907344,0.012717260100449494,9.450814620425922e-08,0.9458819956593943,0.11731865780364181,0.7204762921320798
0.23295667901553213,0.01273899135059714,9.378682222564264e-08,0.9359603996221861,0.11508415517121613,0.7221511366433562
0.23338737921199082,0.012763646513196504,9.318280259525414e-08,0.9271447691324493,0.11289221550488798,0.7240405496690858
0.2338180794084495,0.012791108040707738,9.268369287887053e-08,0.9194081640938304,0.11074202806420494,0.7261357674540847
0.2342487796049082,0.012821262678162623,9.22792026756689e-08,0.9126875916602877,0.10863279755152579,0.7284285219025509
0.23467947980136689,0.012854002695790004,9.196077679895608e-08,0.906905243398305,0.10656374381790427,0.7309110381818874
0.23511017999782557,0.012889226229724517,9.172129376101557e-08,0.9019791512304185,0.1045341015745694,0.7335760111945568
0.23554088019428426,0.012926837216622803,9.15548219633309e-08,0.8978285958420326,0.10254312010989426,0.7364165746164112
0.23597158039074295,0.012966745143252786,9.145642302543537e-08,0.8943767950954309,0.10059006301175244,0.7394262682430511
0.23640228058720164,0.013008864717159618,9.142199295557489e-08,0.8915521382800545,0.09867420789515888,0.7425990061213342
0.23683298078366033,0.013053115511194294,9.144813354676196e-08,0.8892886293853721,0.09679484613509562,0.7459290465124059
0.23726368098011902,0.013099421608598023,9.153204792852239e-08,0.8875258995164269,0.0949512826044246,0.7494109640752074
0.2376943811765777,0.013147711262008845,9.167145548823208e-08,0.8862089893821082,0.09314283541679007,0.7530396243490936
0.2381250813730364,0.013197916572728008,9.186452239910285e-08,0.8852880160696766,0.09136883567441716,0.7568101604675471
0.23855578156949508,0.01324997319279807,9.210980479408326e-08,0.8847177896443662,0.08962862722071291,0.7607179519685714
0.23898648176595377,0.013303820050388656,9.240620225026813e-08,0.8844574171262702,0.08792156639757867,0.7647586055411995
0.23941718196241246,0.013359399097880484,9.275291973568232e-08,0.8844699150083948,0.08624702180734437,0.7689279375419142
0.23984788215887115,0.013416655081465714,9.314943655098492e-08,0.8847218417631215,0.08460437407923653,0.7732219581194001
0.24027858235532984,0.013475535330813837,9.359548109732514e-08,0.8851829559885637,0.08299301564029454,0.7776368567956038
0.24070928255178853,0.013535989567257363,9.409101053720497e-08,0.8858259023959207,0.0814123504906496,0.7821689893627428
0.24113998274824722,0.01359796972895518,9.463619460224702e-08,0.886625925809556,0.07986179398308385,0.7868148659680875
0.2415706829447059,0.013661429811550191,9.523140295127391e-08,0.8875606121916201,0.07834077260678837,0.7915711402703062
0.2420013831411646,0.013726325722925141,9.587719560255246e-08,0.8886096550771497,0.07684872377523964,0.7964345995624578
0.24243208333762328,0.01379261515076111,9.657431606193886e-08,0.8897546455071981,0.07538509561811674,0.8014021557671676
0.24286278353408197,0.01386025744170757,9.732368684900449e-08,0.8909788834485216,0.07394934677718176,0.8064708372190788
0.24329348373054066,0.013929213491076065,9.812640718994523e-08,0.8922672087081099,0.07254094620604802,0.8116377811583319
0.24372418392699935,0.013999445642067856,9.898375270224198e-08,0.8936058494386733,0.07115937297376267,0.8169002268666214
0.24415488412345804,0.01407091759363824,9.989717694409347e-08,0.8949822864557373,0.06980411607213041,0.8222555093843884
0.24458558431991673,0.01414359431618576,1.0086831474352919e-07,0.8963851317278959,0.06847467422670754,0.8277010537539995
0.24501628451637542,0.014217441974332539,1.0189898725944354e-07,0.8978040195471727,0.06717055571139599,0.8332343697393615
0.2454469847128341,0.01429242785613377,1.0299120876089012e-07,0.8992295090288882,0.0658912781665694,0.8388530469774783
0.2458776849092928,0.014368520308118663,1.0414719514298826e-07,0.9006529967255786,0.06463636842066334,0.8445547505219164
0.24630838510575148,0.01444568867562421,1.0536937422871405e-07,0.9020666382653936,0.0634053623151644,0.8503372167421934
0.24673908530221017,0.014523903247935437,1.0666039793659772e-07,0.9034632780408153,0.0621978045329328,0.8561982495466629
0.24716978549866886,0.014603135207793983,1.0802315642579351e-07,0.9048363860784652,0.06101324842979557,0.8621357168997112
0.24760048569512755,0.014683356584879122,1.0946079436298507e-07,0.9061800013153815,0.0598512558693478,0.8681475476069205
0.24803118589158624,0.014764540212904284,1.1097672949102588e-07,0.9074886805922079,0.05871139706090063,0.8742317283444483
0.24846188608804493,0.014846659690006533,1.1257467371803424e-07,0.9087574527496255,0.057593250400516854,0.880386300911165
0.24889258628450361,0.014929689342137575,1.1425865698890911e-07,0.9099817772822345,0.05649640231507453,0.8866093596841466
0.2493232864809623,0.015013604189192911,1.1603305425008739e-07,0.9111575070643877,0.05542044710930141,0.8928990492599848
0.249753986677421,0.015098379913640762,1.1790261587419462e-07,0.9122808547161378,0.05436498681572366,0.8992535622660212
0.2501846868738797,0.015183992831435044,1.1987250197565256e-07,0.913348362225056,0.05332963104747336,0.9056711373271126
0.25061538707033837,0.015270419865016892,1.2194832112322882e-07,0.914356873482042,0.05231399685390022,0.912150057174866
0.25104608726679706,0.01535763851822756,1.2413617404324123e-07,0.9153035094266546,0.051317708578934626,0.9186886468874916
0.25147678746325575,0.015445626852971918,1.2644270301049156e-07,0.9161856455308675,0.0503403977221491,0.9252852722495022
0.25190748765971444,0.015534363467486594,1.2887514774642692e-07,0.9170008913796175,0.04938170280246749,0.9319383382214684
0.2523381878561731,0.015623827476080003,1.3144140878976022e-07,0.9177470721327312,0.048441269224471215,0.9386462875109092
0.2527688880526318,0.015713998490223702,1.3415011947907845e-07,0.9184222116760901,0.04751874914725325,0.9454075992361983
0.2531995882490905,0.015804856600885292,1.3701072789638595e-07,0.9190245172905083,0.046613801355771686,0.9522207876760931
0.2536302884455492,0.015896382362002727,1.4003359037327084e-07,0.9195523656851713,0.04572609113465516,0.9590844010981111
0.2540609886420079,0.015988556775008825,1.4323007846780238e-07,0.9200042902587651,0.04485529014441405,0.9659970206595947
0.25449168883846657,0.016081361274322865,1.4661270169345676e-07,0.9203789694659421,0.04400107630001142,0.9729572593758173
0.25492238903492526,0.016174777713733164,1.501952487380254e-07,0.9206752161796431,0.04316313365174947,0.9799637611499735
0.25535308923138395,0.01626878835360117,1.5399295047194195e-07,0.9208919679513274,0.04234115226842745,0.987015199860318
0.25578378942784263,0.016363375848817502,1.5802266873855285e-07,0.9210282779822202,0.041534828122728275,0.9941102785001255
0.2562144896243013,0.01645852323655682,1.6230311543226756e-07,0.9210832921922338,0.040743862978792025,1.0012477283654322
0.25664518982076,0.016554213919641698,1.668551065460741e-07,0.921056174912274,0.039967964281935095,1.008426308146647
0.2570758900172187,0.01665043166246088,1.717018621254755e-07,0.920946245002642,0.03920684505047471,1.0156448030051977
0.2575065902136774,0.016747160584068305,1.7686935999204663e-07,0.9207529478138413,0.03846022376961979,1.0229020241846694
0.2579372904101361,0.016844385147415642,1.8238675228227487e-07,0.9204758092519185,0.03772782428738965,1.0301968084129547
0.25836799060659477,0.01694209015080149,1.8828685978698036e-07,0.9201144303406129,0.037009375712523364,1.0375280172863959
0.25879869080305345,0.01704026071975896,1.9460676169574532e-07,0.9196684821844,0.036304612314342934,1.0448945366848181
0.25922939099951214,0.01713888229934948,2.0138850291050917e-07,0.919137701295721,0.035613273424535255,1.052295276215229
0.25966009119597083,0.01723794064683334,2.0867994717992547e-07,0.9185218852533664,0.03493510334081837,1.0597291686821309
0.2600907913924295,0.01733742182468951,2.1653581234092955e-07,0.917820888662312,0.03426985123245898,1.0671951695825477
0.2605214915888882,0.01743731219395964,2.250189346540059e-07,0.9170346193882274,0.03361727104760932,1.0746922566240116
