Time [s],Lmtc [m],STIM [ ],Fsee [N],Gamma [ ],Lcerel [ ]
0.0,0.02005313735334361,0.999999853825111,1.6055634667424679,0.09024592399390363,1.2682238841935087
0.0020486100897434685,0.020073708443639586,0.9999998052066948,3.1438396314365775,0.13401231764086236,1.2653520487799375
0.004097220179486937,0.020044961076230182,0.9999997209142291,4.316160965179974,0.17567319761222622,1.2605389630218813
0.006145830269230405,0.019992558966506646,0.9999996084230646,5.093428275458326,0.2153298541316747,1.2550431601649192
0.008194440358973874,0.01992849226839479,0.9999994747304206,5.6045159106267874,0.25307870491781637,1.249272655668044
0.010243050448717343,0.019858720667876247,0.9999993264649369,5.9627388403928085,0.289011529567402,1.2433886352897832
0.012291660538460812,0.019786124459533146,0.999999169424527,6.233905006190858,0.32321569266811273,1.2374635625215282
0.01434027062820428,0.019712139864820254,0.9999990083861258,6.453377398253232,0.3557743561556174,1.2315332512822785
0.016388880717947748,0.0196375183360108,0.9999988471116507,6.640344126797581,0.3867666814454154,1.225616537897469
0.018437490807691217,0.019562671328637857,0.999998688452858,6.805595436874043,0.4162680218408171,1.2197236549050614
0.020486100897434686,0.019487832259286846,0.9999985344926816,6.955460410502601,0.4443501056896182,1.2138601624630199
0.022534710987178155,0.01941313648890897,0.9999983866891194,7.093810323815832,0.4710812107362802,1.2080289459132176
0.024583321076921624,0.019338662916343268,0.9999982460056647,7.223108530504286,0.4965263300933076,1.2022312975885063
0.026631931166665092,0.019264456676070126,0.9999981130224095,7.344980929025793,0.5207473302343583,1.1964675337466941
0.02868054125640856,0.019190542071203295,0.9999979880271865,7.460537520172786,0.543803101391974,1.1907373614843144
0.03072915134615203,0.01911693022778068,0.9999978710885213,7.5705600995856726,0.5657497007243698,1.185040104523329
0.032777761435895496,0.01904362377689117,0.9999977621130397,7.675615415027534,0.5866404885982733,1.179374846025387
0.034826371525638965,0.018970619801322832,0.9999976608900815,7.776125440737266,0.6065262583182368,1.1737405209121121
0.036874981615382434,0.0188979117355333,0.9999975671260329,7.872412218942298,0.6254553596170856,1.1681359765423804
0.0389235917051259,0.018825490615996657,0.9999974804705206,7.964727190660422,0.6434738162071459,1.1625600130590357
0.04097220179486937,0.018753345917994945,0.9999974005362303,8.053270821649479,0.660625437677585,1.1570114103935898
0.04302081188461284,0.018681466123166224,0.999997326913769,8.138206011862284,0.6769519260095527,1.1514889463571216
0.04506942197435631,0.018609839108262666,0.9999972591826883,8.219667436033912,0.6924929769678141,1.1459914086861884
0.04711803206409978,0.01853845241310412,0.999997196919548,8.297768167605996,0.7072863766151686,1.140517602938831
0.04916664215384325,0.018467293425657803,0.9999971397036991,8.372604455172379,0.7213680931841459,1.1350663575139712
0.051215252243586716,0.01839634950951141,0.9999970871213149,8.444259220930784,0.7347723645292231,1.1296365266625157
0.053263862333330185,0.018325608090848034,0.9999970387680752,8.51280466092686,0.7475317813720883,1.124226992089952
0.055312472423073654,0.01825505671667747,0.9999969942508157,8.578304204564093,0.7596773665422729,1.1188366635693232
0.05736108251281712,0.01818468309250589,0.9999969531883779,8.640814010623052,0.7712386504057638,1.1134644788598231
0.05940969260256059,0.01811447510520516,0.9999969152118446,8.70038412355841,0.7822437426649334,1.1081094031406797
0.06145830269230406,0.018044420835180017,0.9999968799642918,8.7570593776639,0.7927194007043419,1.1027704281100645
0.06350691278204752,0.01797450856077363,0.9999968471001629,8.810880111874885,0.8026910946485463,1.097446570856377
0.06555552287179099,0.017904726757037283,0.9999968162843369,8.861882740725436,0.8121830692900811,1.0921368725789926
0.06760413296153446,0.017835063597235194,0.9999967871909418,8.910074902461316,0.821218403038173,1.086840397213782
0.06965274305127793,0.01776550299096771,0.999996759501948,8.955232077353065,0.8298190640314855,1.0815562300029309
0.0717013531410214,0.017696032757177564,0.9999967329055612,8.99731731185071,0.8380059635513383,1.0762834760370765
0.07374996323076487,0.017626642158985774,0.9999967070944181,9.036357198810233,0.8457990068652426,1.071021258789348
0.07579857332050834,0.017557320595787025,0.9999966817635804,9.072375787590813,0.8532171416243727,1.065768718654671
0.0778471834102518,0.017488057589939286,0.9999966566083087,9.105394767433427,0.8602784039326379,1.0605250115031128
0.07989579349999527,0.017418842772853136,0.9999966313215869,9.135433622125083,0.866999962199361,1.0552893072526337
0.08194440358973874,0.01734966587065036,0.9999966055913521,9.162509760925252,0.8733981588821732,1.0500607884640596
0.08399301367948221,0.017280516689509303,0.9999965790973759,9.186638629670433,0.8794885502216097,1.044838648959218
0.08604162376922568,0.01721138510077438,0.9999965515077197,9.20783380515809,0.8852859440640088,1.0396220924617314
0.08809023385896915,0.01714226102587662,0.9999965224746672,9.226107075279641,0.8908044358646577,1.0344103312589066
0.09013884394871262,0.017073134421087984,0.999996491630012,9.241468506879244,0.8960574429587009,1.0292025848823336
0.09218745403845609,0.017003995262113606,0.9999964585795398,9.25392650292648,0.9010577371831261,1.0239980788041798
0.09423606412819956,0.016934833528510742,0.9999964228965021,9.263487850282472,0.9058174759291018,1.0187960431456617
0.09628467421794303,0.016865639187911282,0.9999963841138196,9.270157759091651,0.9103482317001377,1.0135957113937886
0.0983332843076865,0.016796402180014047,0.9999963417146686,9.27393989463116,0.9146610202478916,1.0083963191221148
0.10038189439742996,0.01672711247847193,0.9999962951210593,9.274840495556953,0.918766327353965,1.0031971027109472
0.10243050448717343,0.016657761471230957,0.9999962436833582,9.272938827696223,0.9226741343227276,0.9979973019397821
0.1044791145769169,0.016588334971709702,0.9999961866731143,9.267941389440322,0.9263939422472397,0.9927962744206836
0.10652772466666037,0.016518824463599258,0.999996123257437,9.259735815419377,0.9299347951074378,0.9875935459750287
0.10857633475640384,0.016449223589975873,0.9999960524673194,9.248319258721102,0.9333053017558839,0.9823886499262804
0.11062494484614731,0.016379525899254396,0.999995973163604,9.23368779561824,0.9365136568443032,0.9771811164703573
0.11267355493589078,0.016309724838309204,0.9999958839930899,9.215836425713388,0.9395676607417486,0.9719704721963854
0.11472216502563425,0.01623981374519339,0.9999957833308977,9.194759069354388,0.9424747384924361,0.9667562395920143
0.11677077511537771,0.016169785841438248,0.999995669203743,9.170448562418105,0.9452419578587805,0.9615379365321826
0.11881938520512118,0.01609963422391127,0.9999955391862488,9.14289664853049,0.9478760464927283,0.9563150757500641
0.12086799529486465,0.01602935185620662,0.9999953902584962,9.112093968763965,0.9503834082760259,0.9510871642887627
0.12291660538460812,0.01595893155953796,0.9999952186067229,9.078030048829127,0.9527701388675356,0.9458537029321544
0.12496521547435159,0.01588836600309921,0.9999950193387452,9.040693283755488,0.9550420404930184,0.940614185613119
0.12701382556409505,0.01581764769385414,0.9999947860681937,9.000070920034972,0.9572046360097168,0.9353680987972091
0.12906243565383851,0.01574676896571106,0.999994510291064,8.956149035182031,0.959263182274317,0.9301149208396366
0.13111104574358198,0.015675721968033216,0.9999941804224745,8.90891251464397,0.9612226828378191,0.9248541213132329
0.13315965583332545,0.015604498653430093,0.9999937802558906,8.858345025975048,0.9630878999833378,0.919585160304839
0.13520826592306892,0.01553309076476832,0.9999932863958831,8.8044289901661,0.964863366110671,0.9143074876773435
0.1372568760128124,0.015461489821333793,0.9999926637668436,8.747145549997091,0.9665533944496717,0.9090205422943185
0.13930548610255586,0.015389687104068807,0.9999918572750699,8.686474535250289,0.9681620890421635,0.9037237512039402
0.14135409619229933,0.015317673639798898,0.9999907751404398,8.62239442458012,0.9696933538425253,0.8984165287785607
0.1434027062820428,0.01524544018435395,0.999989252247465,8.554882303768764,0.9711509005785972,0.8930982758059934
0.14545131637178627,0.015172977204475262,0.9999869585959845,8.4839138199648,0.9725382544713268,0.8877683785282187
0.14749992646152973,0.015100274858384388,0.9999831249769693,8.409463131201717,0.973858755275048,0.8824262076229565
0.1495485365512732,0.015027322974868163,0.9999754478544297,8.331502849812463,0.9751155450706742,0.8770711171235506
0.15159714664101667,0.014954111030786721,0.9999524582073864,8.250003980401598,0.9763115039627784,0.8717024432741417
0.15364575673076014,0.014880628522153931,0.9906854490509575,8.164955262935445,0.9774488217544834,0.8663195033320327
0.1556943668205036,0.014806949731421791,2.2363940040329486e-05,8.080493591275738,0.9780856131908641,0.8609216141556854
0.15774297691024708,0.014732359851627734,8.935815453115192e-06,7.959493086460774,0.8925877830063673,0.8555124947455919
0.15979158699999055,0.014657376635417187,4.647531080279524e-06,7.824228096502708,0.8145626859334218,0.8500975293047186
0.16184019708973402,0.014581952087955027,2.693678329487326e-06,7.671285364088134,0.7433578819967688,0.8446791102228092
0.16388880717947749,0.014506028481678673,1.656038391241301e-06,7.496388988025564,0.6783773702344523,0.8392606118890994
0.16593741726922095,0.014429538711408969,1.0570465545117984e-06,7.294353894838247,0.6190771259298219,0.8338466919199576
0.16798602735896442,0.01435240964357387,6.931246633264587e-07,7.059187648350355,0.5649606392663895,0.828443674539985
0.1700346374487079,0.014274571073448582,4.643763686444046e-07,6.784460133549841,0.5155747857000745,0.8230600350921193
0.17208324753845136,0.014195973948166856,3.1707458789791817e-07,6.464083684132882,0.47050604244110517,0.8177070082335811
0.17413185762819483,0.014116622004505525,2.2045451754384824e-07,6.093612731168128,0.4293770306497181,0.8123993466889503
0.1761804677179383,0.01403661974853246,1.5610605226685e-07,5.672022663339878,0.3918433578717853,0.8071562622693798
0.17822907780768177,0.013956235423974875,1.1265868560916722e-07,5.203627748565827,0.35759073556987975,0.8020025850263129
0.18027768789742524,0.013875970189084938,8.292623738794188e-08,4.699431302562431,0.3263323481645886,0.7969701784866103
0.1823262979871687,0.013796617918548713,6.228835941874113e-08,4.177053222692567,0.29780645181499493,0.7920996613121936
0.18437490807691218,0.013719303327366495,4.773367390902301e-08,3.658823101393252,0.27177418296348804,0.7874426130013142
0.18642351816665564,0.01364550823179375,3.7276716539710116e-08,3.168559320972253,0.2480175583659095,0.7830651305871336
0.1884721282563991,0.013577114976797469,2.9602690516996295e-08,2.727606029413214,0.22633764990076558,0.7790556899725305
0.19052073834614258,0.013516430672219859,2.3861991774029907e-08,2.348781475013914,0.2065529188988728,0.7755414406597001
0.19256934843588605,0.013465980830079787,1.9531885795643937e-08,2.0289816746069795,0.18849769606184094,0.7727005159385576
0.19461795852562952,0.01342777841335019,1.62533079927235e-08,1.7532105599423056,0.1720207942484179,0.7707101642593224
0.196666568615373,0.013402077142829113,1.369834186613711e-08,1.51278119086798,0.15698424251170162,0.7696035344247882
0.19871517870511646,0.013385381765993553,1.1575291316394635e-08,1.2802487224793258,0.14326213079059474,0.7692103201305428
0.20076378879485993,0.013369725883951413,9.689247533277834e-09,0.9937928228408313,0.13073955559454067,0.7692102428900163
0.2028123988846034,0.013355904640976173,7.968081880706745e-09,0.7710036131429167,0.11931165785793053,0.7692102283952432
0.20486100897434686,0.01334382804730154,8.65177016285098e-08,0.5994526079056802,0.10888274490402297,0.7692102195028243
0.20522252840194866,0.013371377968489619,8.55114941377308e-08,1.0223185542296322,0.10713935164081032,0.7692102195028241
0.20558404782955045,0.013391756375949405,8.508839304223785e-08,1.0130894981143899,0.10542387556416252,0.7707788658956056
0.20594556725715224,0.01341434714636726,8.474792886520036e-08,1.0046923253140922,0.10373586964156356,0.772510038353115
0.20630708668475403,0.013439073437121269,8.448299963869814e-08,0.9971078978492193,0.10207489399087818,0.7743980127730224
0.20666860611235582,0.01346586093312003,8.428758156893424e-08,0.9902979927366046,0.10044051577375218,0.776437342972223
0.20703012553995762,0.013494638374412225,8.415656640963183e-08,0.9842152426239986,0.09883230908283679,0.7786228577484346
0.2073916449675594,0.013525337735896517,8.408562531470771e-08,0.9788086705601116,0.09724985483081573,0.7809496501057697
0.2077531643951612,0.013557894229021093,8.407109572535688e-08,0.9740268125945494,0.09569274064120796,0.7834130632322731
0.208114683822763,0.013592246211779645,8.410988761614012e-08,0.9698194730318864,0.09416056074091664,0.7860086754126674
0.20847620325036478,0.0136283350527014,8.419940578366109e-08,0.9661386836755241,0.09265291585449745,0.788732284943026
0.20883772267796658,0.013666104973791175,8.433748536534381e-08,0.962939190929212,0.09116941310011856,0.7915798955686394
0.20919924210556837,0.013705502886323724,8.452233826708299e-08,0.9601786599435579,0.08970966588718571,0.7945477026891208
0.20956076153317016,0.013746478227295848,8.475250860753648e-08,0.9578177090716671,0.08827329381560595,0.7976320804299057
0.20992228096077195,0.013788982800873489,8.502683564466138e-08,0.9558198437746779,0.08685992257666335,0.8008295696024315
0.21028380038837374,0.013832970627156622,8.534442294237326e-08,0.9541513327941256,0.08546918385548184,0.804136866534572
0.21064531981597553,0.013878397799395011,8.570461277173274e-08,0.9527810533486701,0.08410071523504913,0.8075508127319123
0.21100683924357733,0.013925222350080079,8.610696493188849e-08,0.951680322130744,0.08275416010177712,0.8110683853205034
0.21136835867117912,0.013973404125916335,8.655123933004508e-08,0.9508227225776796,0.08142916755257454,0.8146866882179045
0.2117298780987809,0.014022904671428945,8.703738178443275e-08,0.9501839348679237,0.08012539230340714,0.8184029439790312
0.2120913975263827,0.014073687120824161,8.756551261567741e-08,0.9497415725007751,0.07884249459932163,0.8222144862649391
0.2124529169539845,0.01412571609764556,8.813591767495195e-08,0.9494750276411332,0.07758014012591087,0.8261187528852764
0.21281443638158629,0.014178957621737683,8.874904152567656e-08,0.9493653263256033,0.07633799992219613,0.8301132793682958
0.21317595580918808,0.014233379023022102,8.940548255240941e-08,0.9493949939279774,0.07511575029490435,0.8341956930155766
0.21353747523678987,0.014288948861600904,9.010598981834479e-08,0.9495479308388376,0.07391307273411826,0.8383637074019145
0.21389899466439166,0.014345636853721444,9.085146153349632e-08,0.9498092980391782,0.07272965383027692,0.8426151172839993
0.21426051409199345,0.014403413803160764,9.164294503075078e-08,0.9501654120853696,0.07156518519250527,0.8469477938845141
0.21462203351959525,0.01446225153761478,9.248163817783075e-08,0.9506036489341827,0.07041936336825166,0.8513596805210834
0.21498355294719704,0.014522122849705464,9.336889218087068e-08,0.9511123559971553,0.06929188976421234,0.8558487885521139
0.21534507237479883,0.014583001442246729,9.430621576069304e-08,0.9516807718056678,0.06818247056852189,0.8604131936139539
0.21570659180240062,0.014644861877436853,9.529528070674979e-08,0.9522989526809086,0.06709081667418992,0.8650510321260122
0.2160681112300024,0.014707679529670566,9.633792883676387e-08,0.952957705827839,0.066016643603764,0.8697604980424639
0.2164296306576042,0.014771430541688484,9.743618041300224e-08,0.9536485283047803,0.0649596714351988,0.8745398398310361
0.216791150085206,0.014836091783803827,9.859224408945048e-08,0.9543635513563739,0.06391962472891259,0.8793873576610158
0.2171526695128078,0.014901640815967539,9.980852848853577e-08,0.9550954896349286,0.06289623245601189,0.8843014007841601
0.21751418894040958,0.014968055852452377,1.0108765553209146e-07,0.9558375948726913,0.06188922792766587,0.8892803650935727
0.21787570836801137,0.015035315728954337,1.0243247567963334e-07,0.9565836136035174,0.060898348725611576,0.894322690846879
0.21823722779561316,0.01510339987192651,1.0384608525845484e-07,0.9573277485667928,0.059923336633772424,0.8994268605411806
0.21859874722321496,0.015172288269975394,1.0533184610537908e-07,0.9580646234587463,0.05896393757097191,0.9045913969283179
0.21896026665081675,0.015241961447163686,1.0689340778017732e-07,0.9587892507262421,0.05801990152472518,0.9098148611599195
0.21932178607841854,0.015312400438076433,1.0853473265679555e-07,0.9594970021258457,0.05709098248609109,0.9150958510525976
0.21968330550602033,0.015383586764518824,1.1026012425195388e-07,0.9601835817963869,0.056176938385567796,0.9204329994644257
0.22004482493362212,0.015455502413724887,1.1207425921298436e-07,0.9608450016165448,0.055277531030015585,0.9258249727745682
0.22040634436122392,0.015528129817965837,1.1398222345989072e-07,0.961477558640213,0.05439252604059003,0.9312704694585807
0.2207678637888257,0.015601451835456049,1.1598955306289323e-07,0.9620778144216413,0.05352169279166967,0.9367682187525117
0.2211293832164275,0.015675451732462486,1.1810228053906284e-07,0.9626425760600286,0.05266480435076234,0.9423169793994671
0.2214909026440293,0.015750113166531195,1.203269873736152e-07,0.9631688788090201,0.051821637419374546,0.9479155384728178
0.22185242207163108,0.015825420170751132,1.2267086371745872e-07,0.9636539701111003,0.05099197227482855,0.9535627102706784
0.22221394149923288,0.015901357138981845,1.2514177638821289e-07,0.9640952949297797,0.050175592713012036,0.9592573352766978
0.22257546092683467,0.01597790881197751,1.2774834651406241e-07,0.964490482264494,0.04937228599204566,0.9649982791826051
0.22293698035443646,0.0160550602643446,1.305000384172623e-07,0.9648373327435767,0.04858184277685384,0.9707844319682762
0.22329849978203825,0.01613279689227584,1.3340726164795389e-07,0.9651338072005645,0.047804057084624756,0.9766147070354332
0.22366001920964004,0.016211104402007022,1.364814884633551e-07,0.9653780161476546,0.04703872623114513,0.9824880403913655
0.22402153863724183,0.016289968798947615,1.3973538952051298e-07,0.9655682100681638,0.046285650777996346,0.9884033898793428
0.22438305806484363,0.016369376377439605,1.4318299113607144e-07,0.9657027704569253,0.045544634480598256,0.9943597344526227
0.22474457749244542,0.016449313710599326,1.4683985804357955e-07,0.9657801930412828,0.04481548423708751,1.0003560734891992
0.2251060969200472,0.016529767636758785,1.5072330580152148e-07,0.9657990218433616,0.044098010038017374,1.0063914260694966
0.225467616347649,0.016610725254507085,1.5485265094198655e-07,0.9657579438284281,0.04339202491686661,1.012464830186162
0.2258291357752508,0.016692173917849686,1.592495063998506e-07,0.9656557916898671,0.04269734490134449,1.0185753423703758
0.2261906552028526,0.016774101226606265,1.6393812992645868e-07,0.9654914933006226,0.04201378896548081,1.0247220371975272
0.22655217463045438,0.016856495019159347,1.6894583795316157e-07,0.9652640660927673,0.04134117898248812,1.0309040067696222
0.22691369405805617,0.01693934336559385,1.7430349982941641e-07,0.9649726118366355,0.04067933967838586,1.0371203602250978
0.22727521348565796,0.017022634561202662,1.800461312348284e-07,0.96461631178624,0.0400280985863748,1.0433702232743378
0.22763673291325975,0.017106357120335175,1.862136107652419e-07,0.9641944221606215,0.03938728600195162,1.0496527377592952
0.22799825234086155,0.017190499770567105,1.928515505700558e-07,0.963706269933465,0.0387567349387538,1.055967061235736
0.22835977176846334,0.01727505144717171,2.0001236109400948e-07,0.9631512489056983,0.038136281085125394,1.062312366576723
0.22872129119606513,0.017360001287873527,2.0775656233870738e-07,0.9625288160379998,0.03752576276139545,1.0686878415960421
0.22908281062366692,0.01744533862786729,2.1615441088551924e-07,0.9618384880221394,0.0369250208778616,1.0750926886903667
0.2294443300512687,0.017531052995085755,2.2528793507850497e-07,0.961079838071913,0.03633389889347238,1.0815261244990282
