Time [s],Lmtc [m],STIM [ ],Fsee [N],Gamma [ ],Lcerel [ ]
0.0,0.019125963098341418,0.9999999642479362,1.3401778091056258,0.0815669143219355,1.1996247853651545
0.0013756496235875911,0.01916292439403287,0.9999999611448755,2.325134365328187,0.11147617156984631,1.1991936315944416
0.0027512992471751823,0.01916988735555029,0.9999999526507042,3.354275756054427,0.14041141796089404,1.1970404211628647
0.004126948870762774,0.019155893979409165,0.9999999400060896,4.237160262115918,0.1684043724973948,1.1940102199661116
0.0055025984943503645,0.01912859781062431,0.9999999237523578,4.940823287072273,0.19548572127600738,1.1905283799867272
0.006878248117937955,0.019092523643235507,0.9999999043616276,5.478306359836598,0.22168515110207754,1.1867944636991077
0.008253897741525547,0.019050719671534863,0.9999998822951184,5.885816766648763,0.24703138202983368,1.182912465041169
0.009629547365113138,0.019005176987759276,0.9999998579974577,6.1988867265882535,0.2715521988447924,1.1789402699647482
0.011005196988700729,0.01895717235244291,0.9999998318842366,6.445021522878861,0.29527448152073754,1.1749119834796131
0.01238084661228832,0.018907525488479068,0.9999998043325863,6.643745470347051,0.3182242346844466,1.1708486887969942
0.01375649623587591,0.018856769392439854,0.9999997756762653,6.808497825112357,0.3404266161205755,1.1667639454564864
0.015132145859463502,0.018805256885869714,0.9999997462044408,6.948476336673106,0.3619059643481078,1.1626667586033084
0.016507795483051094,0.01875322598202067,0.9999997161629892,7.070008781956914,0.38268582529872036,1.1585632638055543
0.017883445106638685,0.018700840269232542,0.9999996857573061,7.177500553509555,0.4027889781263995,1.154457720142597
0.019259094730226276,0.01864821411069128,0.9999996551558872,7.274063080899966,0.42223746017664177,1.150353122703488
0.020634744353813867,0.01859542867729596,0.9999996244941884,7.361929290043292,0.44105259114263795,1.1462515929231707
0.022010393977401458,0.018542542260652668,0.9999995938784481,7.442724592083969,0.45925499643492357,1.1421546359726253
0.02338604360098905,0.018489597143687007,0.9999995633892852,7.517651831979448,0.4768646297901078,1.1380633123584678
0.02476169322457664,0.018436624164263386,0.9999995330849717,7.587612543177904,0.49390079514345725,1.133978357761982
0.02613734284816423,0.018383645869107262,0.9999995030043342,7.653292070041175,0.5103821677892902,1.1299002659619182
0.02751299247175182,0.018330678705385024,0.9999994731692763,7.7152181119165855,0.526326814852368,1.125829348598424
0.028888642095339413,0.018277734573438908,0.9999994435869327,7.773801957210667,0.5417522150927077,1.1217657786266948
0.030264291718927003,0.01822482194689392,0.9999994142514756,7.829368050921548,0.5566752780655084,1.1177096224095446
0.0316399413425146,0.018171946684253478,0.9999993851456006,7.882175009034113,0.5711123626571862,1.1136608638670624
0.03301559096610219,0.018119112630370953,0.9999993562417231,7.932431136580911,0.5850792950178186,1.109619422646079
0.03439124058968978,0.018066322067873265,0.9999993275029042,7.980305973192842,0.598591385909651,1.1055851680404187
0.03576689021327737,0.018013576053070718,0.9999992988835319,8.025938614428592,0.6116634474906681,1.1015579298190574
0.03714253983686496,0.017960874684063356,0.999999270329772,8.069444650510157,0.6243098095516235,1.0975375065131068
0.03851818946045255,0.017908217277201557,0.9999992417798075,8.110919767500139,0.6365443352243141,1.093523672259477
0.03989383908404014,0.017855602536976798,0.999999213163871,8.150444676614386,0.6483804361783172,1.0895161813147234
0.041269488707627734,0.01780302724924303,0.9999991844040693,8.188017661318074,0.6598310873228352,1.0855147723447829
0.042645138331215325,0.017750486688651385,0.9999991554139955,8.223571837664375,0.6709088410297661,1.0815191711532188
0.044020787954802916,0.01769797832665234,0.9999991260981157,8.257155438910871,0.6816258408935733,1.0775290940729325
0.04539643757839051,0.01764549941878556,0.9999990963509207,8.288812361585011,0.6919938350430442,1.0735442497530685
0.0467720872019781,0.017593047007000217,0.9999990660558079,8.31858109776834,0.7020241890195119,1.0695643407575885
0.04814773682556569,0.01754061794309335,0.9999990350836538,8.346494736071906,0.7117278982356577,1.0655890651378335
0.04952338644915328,0.017488208925200588,0.9999990032910282,8.372582230658592,0.7211156000285376,1.0616181170934322
0.05089903607274087,0.017435816523885483,0.9999989705179807,8.396869071280362,0.7301975853200383,1.05765118779096
0.05227468569632846,0.017383437198669825,0.9999989365853044,8.419377578193783,0.7389838098975328,1.0536879660526943
0.05365033531991605,0.01733106731906885,0.9999989012911582,8.44012762132023,0.7474839053270854,1.0497281387619302
0.05502598494350364,0.017278703171987115,0.9999988644068927,8.459136603717754,0.7557071895111517,1.0457713913669686
0.056401634567091234,0.017226340975703202,0.999998825671869,8.476420010100478,0.7636626769023285,1.0418174080411693
0.057777284190678825,0.01717397686939493,0.9999987847869984,8.491990668305789,0.7713590883843158,1.0378658719478189
0.059152933814266416,0.017121606964597354,0.9999987414066244,8.505861611463667,0.7788048608308907,1.0339164647658314
0.06052858343785401,0.017069227298300137,0.9999986951282522,8.518042829880699,0.786008156353324,1.0299688679970755
0.0619042330614416,0.01701683389456836,0.9999986454794376,8.528545069298493,0.7929768712463167,1.026022761871311
0.0632798826850292,0.016964422640085464,0.999998591900895,8.537372639212542,0.7997186446421767,1.0220778267278512
0.06465553230861679,0.016911989467888165,0.9999985337244706,8.544535079978877,0.8062408668826221,1.0181337393422252
0.06603118193220438,0.01685953023745549,0.9999984701440748,8.550038295551765,0.8125506876172311,1.0141901771617052
0.06740683155579197,0.016807040773389466,0.9999984001768457,8.553887780598036,0.8186550236372189,1.0102468163684475
0.06878248117937956,0.01675451679695844,0.9999983226104606,8.556085032492206,0.8245605664528338,1.0063033320832386
0.07015813080296715,0.016701954102905026,0.9999982359304777,8.556637989414646,0.8302737896222808,1.0023593960495825
0.07153378042655474,0.016649349323176108,0.9999981382198527,8.555596237749285,0.835800955839606,0.9984146814055415
0.07290943005014233,0.016596695145547062,0.9999980270180241,8.552776338183127,0.8411481237884861,0.9944689136993892
0.07428507967372992,0.016543987565872782,0.9999978991069043,8.548111676565027,0.8463211547682377,0.9905218932664046
0.07566072929731751,0.01649122397895437,0.9999977501887857,8.541605971242316,0.8513257190970718,0.9865734213751558
0.0770363789209051,0.016438401720650163,0.9999975743893782,8.533260414075187,0.8561673022963364,0.9826232995316602
0.0784120285444927,0.01638551800698474,0.9999973634589361,8.523071567865154,0.8608512110571834,0.9786713280639808
0.07978767816808029,0.016332570095141354,0.999997105432947,8.511041390137727,0.8653825789869103,0.9747173032381988
0.08116332779166788,0.01627955509364429,0.9999967822717964,8.497165054534612,0.8697663721245549,0.9707610212272587
0.08253897741525547,0.01622647010012314,0.9999963654391193,8.481440826807034,0.8740073942000094,0.9668022737040451
0.08391462703884306,0.016173312212833336,0.999995806960537,8.463869066798837,0.8781102915778715,0.9628408501975163
0.08529027666243065,0.016120078413573862,0.9999950194669985,8.444445270055729,0.8820795577491269,0.9588765397543012
0.08666592628601824,0.01606676563144482,0.9999938252989901,8.423165380111554,0.8859195370266648,0.9549091277959469
0.08804157590960583,0.016013370751163766,0.9999917992142228,8.400025882969198,0.8896344264630117,0.9509383966200369
0.08941722553319342,0.01595989061185102,0.9999876064586458,8.375023388821713,0.8932282725833615,0.9469641259588923
0.09079287515678101,0.015906321988729474,0.9999737767403745,8.348153564529445,0.8967049466691434,0.9429860932436402
0.0921685247803686,0.01585271443218356,6.814140610831134e-05,8.322032232282018,0.9000679506598933,0.9390040731281286
0.0935441744039562,0.015798597956747703,7.858417099164631e-06,8.2723454222586,0.8464487036021766,0.935019658257681
0.09491982402754379,0.015744341701421596,3.5560954955981594e-06,8.216169851602654,0.7960203719606203,0.9310348582488434
0.09629547365113138,0.015689930683961018,2.0429470704398212e-06,8.152511646150193,0.748596183764032,0.9270501715830621
0.09767112327471897,0.015635347705694226,1.3005575617018614e-06,8.080191279045899,0.703997325479274,0.9230662560096917
0.09904677289830656,0.015580573180677015,8.762618547529034e-07,7.997823491044074,0.6620555166060669,0.9190839632617906
0.10042242252189415,0.015525585004625985,6.117814827206116e-07,7.903798868430015,0.6226124754266732,0.9151043804433115
0.10179807214548174,0.01547035869466996,4.3757317651802105e-07,7.79627970004582,0.5855193408409534,0.9111288778281762
0.10317372176906933,0.015414867836072365,3.1843064307217507e-07,7.673209973006308,0.5506361163950078,0.9071591678148205
0.10454937139265692,0.01535908499906486,2.3472555447200742e-07,7.532348504801868,0.5178311441923846,0.9031973751350942
0.10592502101624451,0.015302983440391708,1.7472802136975751e-07,7.3713405624079495,0.48698060903079843,0.8992461187031277
0.1073006706398321,0.01524653983922766,1.3105590424105356e-07,7.187836288974291,0.45796807162367376,0.8953086091950214
0.1086763202634197,0.015189738273223237,9.887598019927533e-08,6.979661058168961,0.430684029419702,0.8913887645085987
0.11005196988700729,0.01513257615993242,7.492520080903095e-08,6.745064667944204,0.40502550348054867,0.8874913416575331
0.11142761951059488,0.01507507151483593,5.6946772691288854e-08,6.48299657212377,0.38089564991309244,0.8836221017646851
0.11280326913418247,0.01501727175050409,4.334968659727794e-08,6.193412741826802,0.3582033944180093,0.8797879878929443
0.11417891875777006,0.014959264740295056,3.2995008765909334e-08,5.877620319158578,0.3368630885907964,0.8759973153737245
0.11555456838135765,0.014901189688252239,2.505731948198112e-08,5.53850031632694,0.3167941866868274,0.8722600192476352
0.11693021800494524,0.014843246860624775,1.8932405107449045e-08,5.180577245073024,0.29792094163572225,0.8685879210830528
0.11830586762853283,0.014785705966841908,1.4174319102793117e-08,4.809929484511971,0.28017211916095514,0.8649950071123342
0.11968151725212042,0.01472891063839778,1.0451608938637637e-08,4.433832295796883,0.26348072892778596,0.8614977727650631
0.12105716687570801,0.014673280384804458,7.516362835062255e-09,4.060243456597452,0.24778377170614835,0.858115631914768
0.1224328164992956,0.01461931295627651,5.182073697925946e-09,3.6972259920535717,0.23302200159512637,0.8548715405558103
0.1238084661228832,0.014567589652377606,3.3078665739676085e-09,3.3523118980570774,0.21913970241221117,0.8517931608829294
0.1251841157464708,0.014518787273893882,1.7876232232485413e-09,3.031853815855672,0.20608447740381197,0.8489149211486662
0.1265597653700584,0.014473688948637889,5.428419049470312e-10,2.7401923797400074,0.1938070514836672,0.8462810361921702
0.127935414993646,0.014433167065759714,-4.82558090700331e-10,2.478691832267072,0.18226108525299245,0.8439476830644326
0.1293110646172336,0.014398092149259337,-1.3281938318018858e-09,2.2453436960788467,0.1714030001005561,0.8419790791689441
0.1306867142408212,0.014369134523049786,-2.0253249607515064e-09,2.03602817246162,0.16119181372252048,0.8404311019110092
0.1320623638644088,0.014346507314155675,-2.6039803029937292e-09,1.8470738145808703,0.15158898544113544,0.8393254786174504
0.13343801348799642,0.01432981945521933,-3.094284582909352e-09,1.6767631938959415,0.1425582707385505,0.8386335463115508
0.13481366311158402,0.014318189311237984,-3.5226899724836818e-09,1.5246227104436003,0.13406558445707747,0.8382858721215652
0.13618931273517162,0.014307499112197896,-3.911349877281155e-09,1.329004163610751,0.126078872149879,0.838198833678607
0.13756496235875923,0.014296551114425706,1.7734205344004996e-08,1.1208508506307886,0.11856798909631415,0.8381988246417447
0.1378559794018383,0.014303427894572944,1.738079390373457e-08,1.249530623124943,0.11703733865435433,0.8381988246417444
0.13814699644491737,0.014303526719858616,1.7037660387750316e-08,1.2409866845183835,0.11552644977045382,0.8382396423042348
0.13843801348799645,0.014303988855281238,1.670175638124517e-08,1.236415155213261,0.11403506731185781,0.8382922308963194
0.13872903053107552,0.014304916885945058,1.63742576181057e-08,1.2366656286478117,0.11256293943968015,0.838360866533979
0.1390200475741546,0.014306443671301542,1.605744861028731e-08,1.2423674634930406,0.11110981756643232,0.8384530579456057
0.13931106461723367,0.014308705690258154,1.5755751346024787e-08,1.2525779257300855,0.10967545631406021,0.8385828642833518
0.13960208166031274,0.014311743057762132,1.5476054253568084e-08,1.261294649789943,0.10825961347253653,0.8387767984723955
0.1398930987033918,0.014315756615461101,1.5224956854357514e-08,1.2626388296806335,0.106862049958991,0.8390726643282015
0.14018411574647088,0.014321186519409676,1.500535092074824e-08,1.2573617493886262,0.10548252977733372,0.8395005116750055
0.14047513278954996,0.014328350869412441,1.4816645668934239e-08,1.248516875338285,0.10412081997835503,0.8400724363215745
0.14076614983262903,0.014337380461128625,1.4656824614955433e-08,1.2381320513420513,0.10277669062034368,0.8407904448207594
0.1410571668757081,0.014348305763206294,1.4523591357507075e-08,1.227285093718314,0.10144991473023982,0.8416526549562012
0.14134818391878717,0.014361112122476937,1.4414767058891518e-08,1.2165360936797387,0.10014026826530463,0.8426557782120861
0.14163920096186625,0.014375764786360774,1.432840211109603e-08,1.2061750080608702,0.0988475300752894,0.8437960529785309
0.14193021800494532,0.014392220091239074,1.4262791547810103e-08,1.196349409430795,0.09757148186509519,0.8450695976025177
0.1422212350480244,0.014410430730253582,1.4216460583243327e-08,1.187128377214036,0.09631190815791395,0.8464725624523853
0.14251225209110346,0.014430348431501564,1.4188142447261342e-08,1.1785380093565367,0.09506859625884627,0.8480011950377353
0.14280326913418254,0.01445192521231226,1.4176753790391921e-08,1.1705760987650176,0.09384133621898763,0.8496518785400629
0.1430942861772616,0.014475114107672004,1.4181372670062172e-08,1.1632279975496063,0.09262992079997867,0.8514211244130999
0.14338530322034068,0.014499869555974104,1.4201220000373738e-08,1.1564691029708678,0.09143414543901247,0.8533055920348506
0.14367632026341975,0.014526147500695693,1.4235641914738184e-08,1.150269861805772,0.09025380821429349,0.855302076462891
0.14396733730649883,0.014553905592500842,1.4284097203922102e-08,1.1446010953458134,0.08908870981094244,0.8574075019747972
0.1442583543495779,0.014583103133768597,1.4346145145368037e-08,1.1394296895095353,0.08793865348734069,0.859618935304588
0.14454937139265697,0.014613700979661156,1.4421434286205953e-08,1.1347238265279964,0.08680344504190958,0.8619335567631279
0.14484038843573604,0.014645661452976168,1.4509693931184407e-08,1.130450879307186,0.0856828927803179,0.864348662216079
0.14513140547881512,0.014678948495102654,1.4610729386421207e-08,1.1265843330040615,0.08457680748311339,0.8668616457770993
0.1454224225218942,0.014713527521849014,1.4724416245858852e-08,1.1230937550812816,0.08348500237377118,0.8694700298822704
0.14571343956497326,0.014749365248537245,1.4850693884772469e-08,1.1199521965827894,0.08240729308715546,0.8721714216102673
0.14600445660805234,0.014786429602647318,1.4989561945533267e-08,1.1171321910363028,0.08134349763838773,0.8749635223785356
0.1462954736511314,0.014824689845360763,1.5141079323538745e-08,1.1146126057216872,0.08029343639211714,0.877844108613762
0.14658649069421048,0.014864116466593528,1.5305362511741513e-08,1.1123693022311487,0.0792569320321876,0.88081106223828
0.14687750773728955,0.01490468090282185,1.54825811969739e-08,1.1103789120857308,0.07823380953169631,0.8838623338231921
0.14716852478036863,0.014946355740614948,1.5672960331077046e-08,1.1086245186861967,0.0772238961234389,0.8869959341908721
0.1474595418234477,0.014989114530688125,1.5876779478908504e-08,1.1070842282151208,0.07622702127073626,0.8902099676648519
0.14775055886652677,0.015032931851523983,1.6094373664664072e-08,1.1057441430680561,0.07524301663863786,0.8935025830111963
0.14804157590960584,0.015077783052531305,1.6326133273227057e-08,1.104582594982032,0.07427171606549673,0.8968720194551355
0.14833259295268492,0.015123644351784676,1.6572505860749944e-08,1.1035882546696463,0.07331295553491193,0.9003165388278195
0.148623609995764,0.015170492870841846,1.683400086515297e-08,1.1027451727185975,0.07236657314803269,0.9038344901787699
0.14891462703884306,0.015218306328877728,1.7111188581441817e-08,1.102037813169961,0.07143240909622049,0.9074242659087253
0.14920564408192213,0.015267063269710512,1.7404706579928117e-08,1.1014566226071087,0.07051030563406409,0.9110842956051043
0.1494966611250012,0.015316742870508803,1.7715263048639545e-08,1.100986227105638,0.06960010705274287,0.9148130807047218
0.14978767816808028,0.015367325007598968,1.804364180546921e-08,1.1006187885814296,0.06870165965373441,0.9186091438848442
0.15007869521115935,0.015418790129999025,1.8390708173420426e-08,1.1003403706834347,0.06781481172286107,0.9224710762328868
0.15036971225423842,0.015471119215177262,1.8757414268048255e-08,1.1001425484275418,0.06693941350467225,0.9263974856335075
0.1506607292973175,0.015524293947432672,1.914481018986515e-08,1.100017563901876,0.06607531717715717,0.930387030273072
0.15095174634039657,0.015578296440479193,1.955404992751463e-08,1.0999537115227005,0.06522237682678439,0.9344384170130423
0.15124276338347564,0.015633109245257047,1.9986401020746348e-08,1.0999437830341103,0.06438044842386349,0.9385503668356766
0.15153378042655472,0.015688715576966623,2.0443260378837448e-08,1.0999825888539256,0.06354938979822528,0.9427216421754614
0.1518247974696338,0.015745098998632443,2.0926164343348383e-08,1.1000590055169206,0.06272906061521567,0.94695105625582
0.15211581451271286,0.015802243538357488,2.1436804713346276e-08,1.100169618173692,0.06191932235200031,0.9512374251285237
0.15240683155579193,0.01586013356686707,2.1977046627146655e-08,1.1003041040966388,0.061120038274174705,0.9555796192836514
0.152697848598871,0.0159187537991447,2.2548947765559788e-08,1.1004583661848661,0.06033107341267692,0.9599765091383744
0.15298886564195008,0.015978089413445504,2.315478538740307e-08,1.1006267215598016,0.05955229454099857,0.9644270064556789
0.15327988268502915,0.016038125943159287,2.3797082280955254e-08,1.1008036488418842,0.05878357015269006,0.9689300489624874
0.15357089972810822,0.01609884925595818,2.4478638716219403e-08,1.1009839717788938,0.058024770439157165,0.9734845980209222
0.1538619167711873,0.016160245640792097,2.5202571636168796e-08,1.1011646151640802,0.05727576726774399,0.9780896378540168
0.15415293381426637,0.016222301581600238,2.5972355467080225e-08,1.1013376061365399,0.05653643416010003,0.982744187669131
0.15444395085734544,0.0162850038088627,2.6791873072137857e-08,1.1015002569363306,0.05580664627082659,0.987447263188181
0.1547349679004245,0.01634833941482711,2.7665480032037023e-08,1.101648638329753,0.05508628036639985,0.9921979124295566
0.1550259849435036,0.016412295766493848,2.8598075124447186e-08,1.1017788200989573,0.05437521480436668,0.9969952040235217
0.15531700198658266,0.016476860481056586,2.959518575867388e-08,1.1018870145001023,0.05367332951280992,1.0018382247747857
0.15560801902966173,0.01654202142310037,3.0663070680094166e-08,1.101969814531758,0.05298050597008021,1.0067260784636507
0.1558990360727408,0.016607766703901454,3.1808843896535455e-08,1.1020239361287296,0.05229662718479056,1.0116578868668236
0.15619005311581988,0.016674084661044728,3.304062431076668e-08,1.1020462138115137,0.05162157767607067,1.0166327882482167
0.15648107015889895,0.016740963858212696,3.43677184214926e-08,1.1020338815252837,0.05095524345407835,1.0216499361778208
0.15677208720197802,0.016808393063663985,3.5800843981710515e-08,1.10198392353217,0.050297512000765036,1.0267085006167602
0.1570631042450571,0.016876361247487485,3.735240657432478e-08,1.1018938746907772,0.04964827225089204,1.0318076643872454
