Time [s],Lmtc [m],STIM [ ],Fsee [N],Gamma [ ],Lcerel [ ]
0.0,0.01983385640545292,0.9999998638329376,1.2396244884769099,0.0797857949804668,1.2531153698184132
0.0018315930890285856,0.0198736875567756,0.9999998362065692,2.6470206453087552,0.11946844773774117,1.2516220292490101
0.003663186178057171,0.01986193451576369,0.9999997785574343,3.862683198579067,0.1574398529935594,1.247787533709306
0.005494779267085756,0.01982421637381506,0.9999996972619148,4.752942039009406,0.19377380406548672,1.2430841478487673
0.007326372356114342,0.019772296195882295,0.9999995968690555,5.361997829603828,0.2285409123358555,1.2380071267562194
0.009157965445142928,0.019712763655062738,0.999999481902538,5.786109659262563,0.2618087443884621,1.2327572870830956
0.010989558534171514,0.01964913218466862,0.9999993565925686,6.097354279837845,0.29364195330918613,1.227426700882229
0.0128211516232001,0.019583264411008917,0.9999992246612918,6.339491574043038,0.3241024043129328,1.2220618234268579
0.014652744712228686,0.019516175600241832,0.9999990892367472,6.537910182749804,0.3532492949438764,1.2166878355869468
0.01648433780125727,0.01944844028431601,0.9999989528552302,6.707451144908775,0.3811392700885636,1.2113190820347262
0.018315930890285857,0.01938039554776393,0.9999988175116454,6.857016784502839,0.407826532029376,1.2059639836578788
0.020147523979314443,0.019312245228287995,0.9999986847303467,6.992118841832031,0.4333629457542974,1.200627534424331
0.02197911706834303,0.01924411531487011,0.9999985556403208,7.116280575865342,0.457798139728432,1.1953126555248395
0.023810710157371615,0.019176084650190182,0.9999984310462015,7.231826129420485,0.4811796023231674,1.190020967999654
0.0256423032464002,0.01910820259146105,0.9999983114912608,7.340334396804579,0.5035527740900574,1.1847532557093696
0.027473896335428787,0.019040499540051256,0.9999981973111226,7.442907883211332,0.5249611360582664,1.1795097525720315
0.029305489424457373,0.018972993362847905,0.9999980886784179,7.5403335496922965,0.5454462942266571,1.1742903263487505
0.03113708251348596,0.018905693528612627,0.9999979856393011,7.633188404708695,0.5650480604142264,1.169094596287006
0.03296867560251454,0.018838603772957645,0.9999978881429242,7.721904668313834,0.5838045296255779,1.1639220144846103
0.034800268691543124,0.01877172387262802,0.9999977960649713,7.806812870692438,0.6017521540814154,1.158771921068272
0.036631861780571706,0.018705050893709933,0.9999977092262546,7.8881729066289035,0.6189258140576107,1.1536435824391285
0.03846345486960029,0.01863857992926007,0.9999976274073547,7.966187935947595,0.6353588856702613,1.1485362202557783
0.04029504795862887,0.018572304742606946,0.9999975503600882,8.04102342398404,0.6510833057382654,1.1434490267460158
0.042126641047657454,0.01850621812762452,0.9999974778163554,8.112813262124522,0.6661296338493028,1.1383811798704406
0.043958234136686036,0.018440312273463575,0.9999974094949413,8.181671335263493,0.6805271117497088,1.133331851082842
0.04578982722571462,0.01837457889031971,0.9999973451066556,8.247690624399185,0.6943037201735576,1.1283002147802133
0.0476214203147432,0.018309009410773482,0.9999972843581388,8.31095127986231,0.7074862332213057,1.1232854499808844
0.049453013403771784,0.01824359505702085,0.999997226954646,8.371520502424877,0.7201002703936179,1.1182867447104512
0.051284606492800366,0.018178326984909912,0.9999971726019686,8.429458880384695,0.7321703463814418,1.1133032965416907
0.05311619958182895,0.018113196305746,0.9999971210077113,8.484818674407228,0.743719918709055,1.1083343162994388
0.05494779267085753,0.018048194178781993,0.9999970718820084,8.537648158840344,0.7547714333226421,1.1033790280299056
0.056779385759886114,0.017983311753187257,0.9999970249377362,8.5879868714266,0.7653463682129719,1.0984366713818858
0.0586109788489147,0.017918540256997486,0.9999969798903677,8.635872005035896,0.7754652751569339,1.093506498387517
0.06044257193794328,0.017853870966422165,0.9999969364575184,8.681335545227947,0.7851478196590328,1.0885877751671622
0.06227416502697186,0.017789291990719748,0.9999968943581935,8.724241638981017,0.794412819170458,1.0836797806963823
0.06410575811600044,0.017724792220496766,0.9999968533117634,8.764486000511441,0.803278279659988,1.078781806128908
0.06593735120502903,0.01766036323608786,0.9999968130366845,8.80209347120671,0.8117614306077909,1.073893155253044
0.06776894429405761,0.017595996680471584,0.9999967732489733,8.837086535806119,0.8198787584901254,1.0690131424497658
0.06960053738308619,0.017531684279717453,0.9999967336603984,8.86948668746223,0.8276460388200039,1.0641410920740262
0.07143213047211477,0.017467417806220163,0.9999966939763784,8.899312221853148,0.8350783668060792,1.059276338802873
0.07326372356114336,0.017403189100446272,0.9999966538935481,8.926580496225963,0.8421901866893299,1.054418225834081
0.07509531665017194,0.017338990019462246,0.9999966130969622,8.95130519054335,0.8489953198145437,1.049566104924612
0.07692690973920052,0.017274812491503394,0.9999965712568389,8.973500757500835,0.8555069914911498,1.0447193338931124
0.0787585028282291,0.017210648458261597,0.9999965280247454,8.993178513143114,0.8617378566955786,1.0398772779204568
0.08059009591725769,0.017146489908704883,0.9999964830291332,9.010349849490252,0.8677000246650912,1.0350393073351334
0.08242168900628627,0.017082328845936735,0.999996435870035,9.025024132011426,0.8734050824308479,1.0302047981313989
0.08425328209531485,0.017018157262772768,0.9999963861127946,9.037208349563555,0.8788641173359243,1.0253731305895615
0.08608487518434343,0.016953967138163377,0.999996333280516,9.046908091546252,0.8840877385820053,1.020543687543271
0.08791646827337202,0.016889750455256945,0.9999962768449752,9.054129099249819,0.8890860978465929,1.0157158534517938
0.0897480613624006,0.016825499169633284,0.999996216215548,9.058875347401433,0.8938689090107378,1.0108890147749228
0.09157965445142918,0.016761205187076262,0.9999961507256111,9.061148792615237,0.898445467035568,1.006062558648225
0.09341124754045776,0.016696860738851925,0.9999960796160434,9.060969873435617,0.9028246660242145,1.0012358713094656
0.09524284062948635,0.01663245820864348,0.9999960020208414,9.058357405826147,0.9070150165041374,0.9964083542329676
0.09707443371851493,0.01656798572373063,0.999995916947409,9.053007469414146,0.9110246619635586,0.9915795589723522
0.09890602680754351,0.01650343793555679,0.9999958232367292,9.04490345078266,0.9148613946739383,0.9867491119137801
0.1007376198965721,0.016438809703358533,0.9999957195192027,9.034040312333733,0.9185326708284219,0.98191664009753
0.10256921298560068,0.016374095857604964,0.9999956041598812,9.020416282736614,0.9220456250255573,0.9770817655284699
0.10440080607462926,0.016309291107446524,0.9999954751863301,9.004025866169032,0.9254070841260696,0.9722441084037572
0.10623239916365784,0.016244390117590133,0.9999953301920171,8.98486579882552,0.9286235805089715,0.9674032842640083
0.10806399225268642,0.01617938742540626,0.9999951662049891,8.962929209166756,0.9317013647518619,0.9625589063034892
0.10989558534171501,0.016114277481076997,0.9999949795063133,8.93820963621624,0.9346464177587475,0.9577105825923459
0.11172717843074359,0.01604905463621152,0.9999947653743892,8.910699994070626,0.9374644623570423,0.9528579167829814
0.11355877151977217,0.015983713137945593,0.9999945177170251,8.880392452159485,0.9401609743834368,0.9480005079066887
0.11539036460880076,0.015918247142699616,0.9999942285292922,8.847279405065535,0.9427411932758479,0.9431379500569733
0.11722195769782934,0.015852650650136548,0.9999938870726449,8.811349790555274,0.945210132185229,0.9382698329152112
0.11905355078685792,0.015786917575655937,0.9999934785921316,8.772594715398792,0.9475725876159207,0.9333957390359416
0.1208851438758865,0.015721041668423853,0.999992982237334,8.731001824311248,0.9498331485949704,0.9285152460680863
0.12271673696491509,0.015655016532456,0.9999923675438249,8.686558331624415,0.9519962053563777,0.9236279240104661
0.12454833005394367,0.015588835593921333,0.9999915881600495,8.63924950717054,0.954065957499123,0.9187333351295242
0.12637992314297225,0.015522492147541967,0.9999905699264643,8.58906208892009,0.9560464215228733,0.9138310325271711
0.12821151623200083,0.015455979298139062,0.9999891863275531,8.535980350019619,0.9579414375246691,0.9089205617362736
0.13004310932102942,0.01538928994625869,0.9999872023667628,8.479986794864335,0.9597546745482444,0.9040014588089946
0.131874702410058,0.015322416845919177,0.9999841265417995,8.421066052933316,0.9614896332823966,0.8990732490100756
0.13370629549908658,0.015255352492713618,0.9999787294726111,8.35919795236356,0.9631496422597435,0.8941354490046245
0.13553788858811516,0.015188089221666572,0.9999668271566132,8.294365266275282,0.9647378334612713,0.88918756280372
0.13736948167714375,0.015120619052721497,0.9999190432294317,8.226544248427125,0.9662570233805307,0.884229084709731
0.13920107476617233,0.015053008342422937,7.02326735137188e-05,8.159374759611149,0.9677086402619828,0.8792594937004258
0.1410326678552009,0.01498463646849415,1.4770195972565449e-05,8.06068738641458,0.8917206872005412,0.8742816102749371
0.1428642609442295,0.014915962438965312,6.782051115053574e-06,7.9507701947452585,0.8216957200570766,0.8692993577438342
0.14469585403325808,0.014846951848064133,3.782510752250005e-06,7.827265421435289,0.7571691930938844,0.8643142126147232
0.14652744712228666,0.014777563607523591,2.3068741932159766e-06,7.687253245894518,0.6977097050202433,0.8593282183579184
0.14835904021131524,0.01470774971437815,1.4810929474509513e-06,7.527206885064737,0.6429194604502075,0.8543441366951732
0.15019063330034382,0.014637456088010658,9.83536548388976e-07,7.3429978666128735,0.5924318342697742,0.8493656434480212
0.1520222263893724,0.01456662540716871,6.693395987615414e-07,7.129999863600164,0.5459089672133983,0.8443975735698158
0.153853819478401,0.014495203510199752,4.6448371887760107e-07,6.8833640095100606,0.5030395207603545,0.8394462206453911
0.15568541256742957,0.014423150886371857,3.27798513797243e-07,6.598517991489239,0.46353660002163344,0.8345197064654433
0.15751700565645815,0.014350462001299462,2.349752278007182e-07,6.271980339556389,0.42713583675869493,0.829628419776175
0.15934859874548674,0.014277193248927936,1.7102814215842505e-07,5.902421969736308,0.3935936216875458,0.8247855695178007
0.16118019183451532,0.01420349860647549,1.2642075577870018e-07,5.491813376651405,0.3626854750081521,0.8200078529787443
0.1630117849235439,0.014129670940148827,9.493874483503247e-08,5.046420648503349,0.3342045445921259,0.8153162241470185
0.16484337801257248,0.014056180463750019,7.245935756390872e-08,4.577120270092919,0.30796022194084316,0.8107368468411419
0.16667497110160107,0.013983702944978084,5.620877493382121e-08,4.098747093194574,0.2837768667358678,0.8063022248541852
0.16850656419062965,0.013913135824614075,4.4298768871005525e-08,3.6285041671889298,0.2614926314922356,0.8020527004923407
0.17033815727965823,0.013845613701705147,3.543106307652763e-08,3.1838535768873957,0.2409583784754445,0.7980390615439797
0.1721697503686868,0.013782540442670028,2.871041934884722e-08,2.7800822003412207,0.22203668164984222,0.7943281888155944
0.1740013434577154,0.013725620332499945,2.3533117285637917e-08,2.426884687591609,0.20460090698942715,0.7910137619109712
0.17583293654674398,0.013676765494513451,1.9511941803896157e-08,2.1239976416002437,0.18853436500317167,0.788225318256783
0.17766452963577256,0.013637686914533834,1.6386407328920462e-08,1.8618097837026908,0.17372952980672612,0.7861044763319854
0.17949612272480114,0.013609110032468005,1.3927605913456416e-08,1.631231708381244,0.1600873195134462,0.7847223357950477
0.18132771581382973,0.013590150555438855,1.1915892376788969e-08,1.4302730727774542,0.14751643312891127,0.7840090674352028
0.1831593089028583,0.013576096000288623,8.769881737428755e-08,1.2090850535576039,0.13593273951742826,0.7837955079726732
0.18354993803605194,0.01357473895641644,8.601320844191046e-08,1.1835637195541495,0.13358245791093573,0.7837955079726724
0.18394056716924556,0.013573478373142515,8.436369651160075e-08,1.158080617890084,0.1312728157386674,0.783803692812653
0.1843311963024392,0.01357249979560894,8.274948042774464e-08,1.1360086541058028,0.12900311029192352,0.7838201963131518
0.1847218254356328,0.01357184702625449,8.117066793487548e-08,1.1177140471498401,0.12677265101274915,0.7838464175918036
0.18511245456882644,0.013571585561076079,7.962821358886754e-08,1.1037639291770955,0.12458075928384742,0.783884552151489
0.18550308370202007,0.013571825136805759,7.81246583147932e-08,1.095186378497678,0.12242676822212463,0.7839382140725848
0.1858937128352137,0.013572738423015172,7.66659585558388e-08,1.0934667468252859,0.12031002247581754,0.7840138982036285
0.18628434196840732,0.013574580966461474,7.526636762910332e-08,1.1000852186238521,0.1182298780251609,0.7841245487574535
0.18667497110160094,0.01357754361077187,7.395760755157836e-08,1.1115457822254353,0.11618570198658548,0.7842992498824932
0.18706560023479457,0.013581756294383757,7.278324811798825e-08,1.1153056843093374,0.11417687242046072,0.7845997281098335
0.1874562293679882,0.013588026284890396,7.176856334591889e-08,1.108760489634244,0.11220277814206453,0.7850971649694951
0.18784685850118182,0.01359704738241448,7.091011267748382e-08,1.0973187437381464,0.11026281853530041,0.7858214334010166
0.18823748763437545,0.013609039578194187,7.019297318148621e-08,1.0845055636442682,0.1083564033694555,0.7867745777516103
0.18862811676756908,0.013624012232369956,6.960145729574119e-08,1.0717328950606202,0.10648295261942471,0.787951454429869
0.1890187459007627,0.013641897827641452,6.912146487324442e-08,1.0596240023460748,0.10464189628922982,0.7893443591092144
0.18940937503395633,0.013662601998668955,6.87409516981647e-08,1.0484102290123647,0.1028326742386295,0.7909451841199655
0.18980000416714995,0.013686021867847698,6.8449784379842e-08,1.038182677031234,0.10105473601273646,0.7927457651371146
0.19019063330034358,0.013712055357299828,6.82395516919897e-08,1.0289520907372143,0.09930754067457803,0.7947383395832018
0.1905812624335372,0.013740603651770673,6.810326616627525e-08,1.0206771594643897,0.0975905566405484,0.7969156180908075
0.19097189156673083,0.013771571667943603,6.803510524533807e-08,1.013298970497257,0.0959032615187014,0.7992706749883097
0.19136252069992446,0.013804868736600697,6.8030232407675e-08,1.0067532266493078,0.09424514194983484,0.801796947154188
0.1917531498331181,0.013840408825662487,6.80846479221567e-08,1.0009732894646688,0.0926156934513193,0.8044882370664784
0.1921437789663117,0.013878110366988293,6.819506066648732e-08,0.9958932478678046,0.09101442026362506,0.8073386856922375
0.19253440809950534,0.013917896065918652,6.83587866812803e-08,0.9914508906909345,0.08944083519950059,0.8103427442954514
0.19292503723269896,0.013959692687073665,6.857366678419314e-08,0.9875871773310333,0.08789445949575678,0.8134951597347009
0.1933156663658926,0.01400343079490449,6.883799902014515e-08,0.9842476666864838,0.08637482266761325,0.8167909478866408
0.19370629549908622,0.014049044544136231,6.915048518870226e-08,0.9813820400416495,0.08488146236556127,0.8202253792475381
0.19409692463227984,0.014096471413676141,6.951018535807217e-08,0.9789435410931656,0.08341392423470162,0.8237939607869081
0.19448755376547347,0.014145651897050467,6.99164788737024e-08,0.976888362439558,0.08197176177651318,0.8274924148883969
0.1948781828986671,0.014196529393531058,7.036904007057559e-08,0.9751790425772545,0.0805545362130113,0.8313166557229524
0.19526881203186072,0.014249050059082552,7.086781624038573e-08,0.9737789046092854,0.07916181635325487,0.8352628022170254
0.19565944116505435,0.014303162482219484,7.141300562245289e-08,0.972655053690786,0.07779317846216086,0.8393271402025558
0.19605007029824797,0.014358817517493194,7.200504383542102e-08,0.971776542118746,0.07644820613158719,0.8435061177754486
0.1964406994314416,0.014415968216053541,7.264459825181048e-08,0.9711174831742954,0.07512649015364428,0.8477963260973576
0.19683132856463523,0.014474569722831435,7.333256270562265e-08,0.9706520312490919,0.07382762839619739,0.8521945137265342
0.19722195769782885,0.014534579011312401,7.407005053917124e-08,0.9703570604693054,0.07255122568052119,0.8566975547376927
0.19761258683102248,0.014595954814873632,7.485839651561057e-08,0.970211577597087,0.07129689366107007,0.8613024460614678
0.1980032159642161,0.014658657467676273,7.569915769326608e-08,0.9701953588128785,0.07006425070732727,0.8660063015029541
0.19839384509740973,0.014722648876791092,7.659412247572828e-08,0.9702922877903184,0.06885292178769707,0.8708063348002586
0.19878447423060336,0.01478789246239109,7.754531938811938e-08,0.9704853325227619,0.06766253835540473,0.8756998773379087
0.19917510336379698,0.014854352945028577,7.855502411516898e-08,0.9707596106894054,0.06649273823636956,0.8806843485737412
0.1995657324969906,0.01492199630801307,7.962577463898245e-08,0.9711012124801954,0.06534316551901688,0.8857572584024848
0.19995636163018424,0.014990789739659388,8.076038891426556e-08,0.9714979437700876,0.06421347044599572,0.8909161995130694
0.20034699076337786,0.015060701570538005,8.196198499352565e-08,0.971938024063941,0.06310330930776879,0.8961588484328105
0.2007376198965715,0.015131701128869711,8.323400130869001e-08,0.9724099805343603,0.062012344338043215,0.9014829551369256
0.20112824902976512,0.015203758776359428,8.458022854994087e-08,0.9729055451889829,0.060940243611009394,0.906886332913698
0.20151887816295874,0.015276845896435414,8.600484260765595e-08,0.9734151268582103,0.059886680940357734,0.9123668775169058
0.20190950729615237,0.01535093470729526,8.751243632505665e-08,0.9739301066341175,0.0588513357800414,0.917922542981885
0.202300136429346,0.015425998274421898,8.910806437588385e-08,0.9744432053221815,0.05783389312675628,0.9235513409441295
0.20269076556253962,0.015502010473308006,9.079729209599717e-08,0.9749470267566568,0.056834043424107424,0.9292513442869053
0.20308139469573325,0.015578945931337821,9.25862513070043e-08,0.9754353020931736,0.05585148246843384,0.9350206772851168
0.20347202382892687,0.015656780002245956,9.448170547817465e-08,0.9759017790923913,0.054885911316262324,0.9408575186028023
0.2038626529621205,0.015735488723819982,9.649112458972366e-08,0.9763411469373271,0.05393703619336287,0.9467600940394388
0.20425328209531413,0.015815048746060118,9.862276929330484e-08,0.9767472847986534,0.053004568405377844,0.9527266788802174
0.20464391122850775,0.015895437367804566,1.0088579579262863e-07,0.97711710429525,0.05208822424999804,0.9587555836845495
0.20503454036170138,0.015976632565541278,1.0329037501051008e-07,0.9774456673542486,0.051187724930658964,0.9648451780080428
0.205425169494895,0.01605861281928138,1.0584782231046713e-07,0.9777285665377857,0.05030279647173168,0.9709938668340671
0.20581579862808863,0.016141357146162667,1.0857076050050351e-07,0.9779624535816519,0.04943316963518226,0.9772000907690783
0.20620642776128226,0.016224845071204048,1.114733070052252e-07,0.9781432605019462,0.04857857983867514,0.9834623317028622
0.20659705689447588,0.01630905663460408,1.1457129869573625e-07,0.9782689022273567,0.0477387670750957,0.9897791014374164
0.2069876860276695,0.016393972377325643,1.1788255488196848e-07,0.97833556700989,0.046913475833468644,0.9961489569746473
0.20737831516086314,0.01647957324797443,1.2142718730790167e-07,0.9783408118544142,0.04610245502124787,1.0025704798795834
0.20776894429405676,0.016565840647701186,1.2522797879199718e-07,0.9782820702491105,0.04530545788795572,1.0090422862355306
0.2081595734272504,0.01665275640252661,1.2931083583576746e-07,0.9781570513694365,0.04452224195014916,1.0155630228105805
0.20855020256044401,0.016740302745914162,1.3370533811798663e-07,0.9779636680435769,0.043752568917691095,1.0221313660712514
0.20894083169363764,0.016828462303391356,1.384454078299343e-07,0.9777000171332955,0.042996204621306114,1.0287460211182948
0.20933146082683127,0.016917218079517536,1.4357013127892494e-07,0.9773643584160713,0.04225291894140035,1.035405720804869
0.2097220899600249,0.017006553445973835,1.4912477475783258e-07,0.9769551207790608,0.041522485738126606,1.0421092248181176
