Time [s],Lmtc [m],STIM [ ],Fsee [N],Gamma [ ],Lcerel [ ]
0.0,0.021735363760713597,0.9999998584977616,1.6186031695683836,0.0908360624816007,1.3943751573107994
0.00428602267809748,0.02168105143936501,0.9999996645664181,3.4007405050056354,0.17994264900227158,1.3853108602968671
0.00857204535619496,0.02155804388488414,0.9999993652555951,4.210195413061659,0.2603159345748263,1.374270258870307
0.012858068034292439,0.021425359110843426,0.9999990263104653,4.720113782741295,0.3328118543454304,1.3632633595170343
0.01714409071238992,0.021293586306956023,0.999998689701699,5.133785243302489,0.3982024602246618,1.3525648540549293
0.0214301133904874,0.02116472889376844,0.9999983784647974,5.5026415417448415,0.45718413990192847,1.3422003922641765
0.02571613606858488,0.021039062971137553,0.9999981033737961,5.842992849085197,0.5103850307936109,1.332149758943964
0.030002158746682363,0.020916429182548362,0.9999978679539818,6.161756170130234,0.5583717080087733,1.3223824081271296
0.034288181424779844,0.020796564506499846,0.9999976717222222,6.462606110860085,0.6016552173227405,1.3128680140787292
0.038574204102877326,0.020679205328685914,0.9999975121370799,6.7481552405488765,0.6406965171802107,1.303579284811839
0.04286022678097481,0.020564110913910128,0.999997385726754,7.019913927690886,0.6759113875221052,1.2944933013704676
0.04714624945907229,0.020451059538226547,0.9999972887254621,7.278820756557382,0.7076748576118569,1.285590020797768
0.05143227213716977,0.020339865188705664,0.9999972174187532,7.526456164823453,0.736325199955525,1.2768514165394276
0.05571829481526725,0.020230360042644543,0.9999971683210923,7.76299766905575,0.7621675328140931,1.2682633779368968
0.06000431749336473,0.020122390831172378,0.9999971382560352,7.989183924393449,0.7854770696531481,1.2598121842515484
0.0642903401714622,0.02001582032812819,0.9999971243811421,8.20546656710104,0.8065020501238434,1.251485940619925
0.06857636284955969,0.019910539251217607,0.9999971241843936,8.41304310620713,0.8254663837826596,1.2432738605604674
0.07286238552765717,0.01980644744148009,0.9999971354650563,8.61183424303166,0.8425720347014575,1.2351679065741108
0.07714840820575465,0.019703441207575435,0.9999971563079437,8.80174041815405,0.8580011723614857,1.2271598638631989
0.08143443088385213,0.01960143675323833,0.9999971850538288,8.983853030976881,0.8719181117370625,1.2192413269227704
0.08572045356194961,0.01950036004960081,0.9999972202702855,9.158244952234108,0.8844710632299464,1.211406202722216
0.0900064762400471,0.019400141715588973,0.9999972607251859,9.325172124956213,0.8957937110908524,1.203648527861468
0.09429249891814458,0.019300716653197568,0.9999973053615243,9.48479942895949,0.9060066371382433,1.195962836088995
0.09857852159624206,0.019202023719763258,0.9999973532747237,9.637314174096426,0.9152186049368506,1.1883439636744364
0.10286454427433954,0.01910400834262855,0.9999974036925754,9.783039102756648,0.92352771811242,1.1807870851113986
0.10715056695243702,0.01900662079047051,0.9999974559575602,9.922161303855178,0.9310224651387713,1.1732879619085916
0.1114365896305345,0.018909814920968496,0.9999975095113285,10.054853051326983,0.9377826617241881,1.1658426721069697
0.11572261230863198,0.01881354606463364,0.9999975638811553,10.181178282018113,0.9438803008335723,1.158447576034083
0.12000863498672946,0.01871777866166847,0.9999976186677766,10.30165837748835,0.9493803193991218,1.151099113456953
0.12429465766482695,0.01862247431532902,0.9999976735349894,10.416011363857537,0.9543412898849709,1.1437946273783064
0.1285806803429244,0.01852759440214192,0.999997728201107,10.524351505532305,0.9588160440709863,1.1365309149166736
0.13286670302102188,0.01843310071299098,0.9999977824314401,10.626703261341886,0.962852235699057,1.1293049393533459
0.13715272569911935,0.018338959339593883,0.9999978360313705,10.72333551375032,0.9664928479740289,1.1221136724004248
0.14143874837721682,0.01824513632723421,0.9999978888404026,10.814200831840212,0.9697766513241077,1.114954518106553
0.14572477105531428,0.01815159986049733,0.9999979407271603,10.89946574852592,0.972738616295858,1.1078247661499026
0.15001079373341175,0.018058327497014675,0.9999979915846512,10.979647790824265,0.975410285981129,1.1007219589246822
0.15429681641150922,0.017965292117477452,0.9999980413268502,11.054368031544158,0.9778201119421832,1.0936444812345671
0.1585828390896067,0.017872466456130928,0.999998089885771,11.123748927940627,0.9799937572126665,1.0865900510312152
0.16286886176770415,0.017779816100117803,0.9999981372083847,11.187332346755673,0.981954369601362,1.0795566159845476
0.16715488444580162,0.017687312818413268,0.9999981832542257,11.245059805647948,0.9837228282092997,1.0725420675696222
0.1714409071238991,0.017594933037744315,0.9999982279932157,11.297066498361993,0.9853179657856483,1.0655444014823396
0.17572692980199656,0.017502657031099246,0.999998271403757,11.343568575557548,0.9867567692904226,1.058561805302813
0.18001295248009402,0.017410470681213385,0.9999983134710836,11.384862493218364,0.9880545607999921,1.0515927919029728
0.1842989751581915,0.01731834807179702,0.999998354186213,11.420212035393687,0.9892251606820825,1.0446363302862303
0.18858499783628896,0.017226263058391054,0.999998393544669,11.449811302634272,0.9902810347786395,1.0376901728425945
0.19287102051438643,0.017134204675091965,0.9999984315443912,11.47451573735712,0.9912334271667175,1.0307523661331457
0.1971570431924839,0.017042135714460397,0.9999984681838907,11.492600087296315,0.9920924799220893,1.0238223186731386
0.20144306587058136,0.016950026013036516,0.9999985034572706,11.50492015250645,0.9928673411956276,1.0168966466949976
0.20572908854867883,0.01685785353352476,0.9999985373434563,11.511751529894713,0.9935662628408668,1.0099733306971712
0.2100151112267763,0.016765595404814822,0.9999985697884978,11.51298742590535,0.9941966888096746,1.0030507859766986
0.21430113390487376,0.016673236429278832,0.9999986006818232,11.509110061238585,0.9947653355391469,0.9961272511352546
0.21858715658297123,0.01658075316124935,0.9999986298276415,11.499366596847223,0.9952782655149852,0.989201939229891
0.2228731792610687,0.0164881392773658,0.9999986569100272,11.484196160193367,0.9957409550072801,0.9822738201491336
0.22715920193916617,0.016395379134620264,0.9999986814770471,11.462849513254096,0.9961583565547114,0.9753426997229566
0.23144522461726363,0.01630245970640148,0.9999987029575864,11.435668217614754,0.996534956158549,0.9684071823431899
0.2357312472953611,0.016209362083883464,0.9999987207156102,11.402222534567168,0.9968748245143612,0.9614664317036273
0.24001726997345857,0.016116070441154037,0.999998734141047,11.362796855217091,0.9971816612227364,0.9545189283302562
0.24430329265155604,0.01602256903374788,0.9999987427686897,11.317316234091424,0.9974588309982481,0.9475636289635866
0.2485893153296535,0.01592884199084566,0.9999987464123508,11.265783193755505,0.997709391485569,0.9405993876622543
0.25287533800775097,0.01583487268215821,0.9999987452970075,11.208141428537123,0.9979361132398106,0.9336250851070159
0.25716136068584844,0.01574064478687231,0.9999987401651628,11.144409034952346,0.9981414934509283,0.9266395359873306
0.2614473833639459,0.01564614088793593,0.9999987323224484,11.074501705151246,0.9983277657969335,0.9196416143001682
0.2657334060420434,0.015551344086103995,0.9999987235782137,10.998452027764126,0.9984969091972791,0.9126300884835229
0.27001942872014084,0.015456236988411698,0.9999987160440714,10.91620161220351,0.9986506581366817,0.9056038178426652
0.2743054513982383,0.015360801254268587,0.9999987117925826,10.82768848935895,0.9987905166822395,0.8985616053279096
0.2785914740763358,0.015265017923284743,0.999998712446575,10.732868116425886,0.9989177774308091,0.8915021949738742
0.28287749675443324,0.015168869414738531,0.9999987188310006,10.631801200729546,0.999033545541512,0.8844243046410853
0.2871635194325307,0.015072329507034318,0.99999873082057,10.523958146203162,0.9991387668998745,0.8773268069450899
0.2914495421106282,0.014975388446735315,0.9999987474353581,10.410364926073989,0.999234258523083,0.870207733239311
0.29573556478872565,0.014878021935885024,0.999998767126603,10.289898705698386,0.9993207387508526,0.8630669276926825
0.3000215874668231,0.014780201008235244,0.9999987881229013,10.162580976889794,0.9993988547156383,0.8559023673602449
0.3043076101449206,0.014681901043580973,0.9999988087146103,10.028601653627883,0.9994692050613574,0.8487121385476171
0.30859363282301805,0.014583096844755991,0.9999988274185755,9.887832309235566,0.9995323567374094,0.8414947357453366
0.3128796555011155,0.014483761540777303,0.9999988430234898,9.740174577797186,0.9995888556824876,0.8342485090583757
0.317165678179213,0.014383866703711529,0.9999988545494578,9.585526339014935,0.9996392320690269,0.826971721412586
0.32145170085731045,0.014283382542573643,0.999998861159577,9.423795486264053,0.9996840013307893,0.8196625463284056
0.3257377235354079,0.01418227875156438,0.9999988620492423,9.254930095332695,0.9997236623966911,0.812319090601355
0.3300237462135054,0.014080522244881431,0.9999988563228596,9.078747624982602,0.9997586944638435,0.8049394721956684
0.33430976889160285,0.013978080822770697,0.9999988428526252,8.895292291355618,0.9997895533748354,0.7975215855674617
0.3385957915697003,0.013874915797816915,0.9999988200992892,8.70416477112712,0.9998166683316057,0.7900635269631461
0.3428818142477978,0.013770983346555084,0.9999987858556246,8.505170077378917,0.9998404393631127,0.7825627681740027
0.34716783692589526,0.013666237463046328,0.9999987368380185,8.298199566732883,0.9998612357098723,0.775016547776756
0.3514538596039927,0.013560632534482708,0.999998667976826,8.083244868258328,0.9998793951061666,0.7674220430497665
0.3557398822820902,0.013454122991305733,0.9999985710819883,7.860249811799942,0.9998952238188578,0.7597765722382959
0.36002590496018766,0.01334665680443884,0.9999984321095963,7.62886557792137,0.9999089972128744,0.7520775079264195
0.3643119276382851,0.013238174063951285,0.9999982249377434,7.388775641077992,0.9999209605064175,0.7443216975854142
0.3685979503163826,0.013128612665349183,0.9999978950302869,7.139924505529723,0.9999313291304073,0.7365055326727934
0.37288397299448006,0.013017904791741707,0.9999973066991452,6.882022662790657,0.9999402872962965,0.7286254928108047
0.37716999567257753,0.012905977144086443,0.9999960034334784,6.614877571171836,0.9999479800397677,0.7206776630638517
0.381456018350675,0.012792746620997894,0.9999908926826393,6.338094650151406,0.9999544744176633,0.7126579461577061
0.38574204102877246,0.012678458692921696,9.265210800416523e-06,6.065689226246681,0.9999594143914631,0.7045616291270502
0.39002806370686993,0.012560682229179984,1.4713212962321137e-06,5.682960511619846,0.8257873029605175,0.696415389890173
0.3943140863849674,0.012440811465166221,5.128564713352737e-07,5.227914224531986,0.6819515741198128,0.6882731785231256
0.39860010906306487,0.012318487833471302,2.1976210394846875e-07,4.670566281513529,0.5631693504048171,0.6801902420782894
0.40288613174116233,0.012193712154382443,1.0593130688488212e-07,3.9891372924088624,0.4650768646422225,0.6722597603120936
0.4071721544192598,0.012068009228770393,5.614106668279423e-08,3.2094908914248643,0.3840703570226648,0.6646254170325158
0.41145817709735727,0.011946130928497509,3.233906999957418e-08,2.428101603035393,0.3171737596912519,0.6575178670296182
0.41574419977545474,0.011837663858246888,1.9897748742988158e-08,1.7857754919654805,0.26192937721252085,0.651317259299762
0.4200302224535522,0.011755602795228685,1.2924652380206163e-08,1.3188842194680117,0.2163075992277711,0.646800838690442
0.42431624513164967,0.011709599404554433,8.615005483492762e-09,0.9260841650510092,0.1786323370320969,0.6449735904056656
0.42860226780974714,0.01168357840896219,9.008633743717072e-08,0.5455755648087519,0.14751944681387646,0.6449735201862247
0.4293162451316497,0.011696838711288871,8.724939487768795e-08,0.726983772752913,0.14289089563934299,0.6449735201862259
0.4300302224535522,0.011703606163176743,8.502664253086964e-08,0.7198057334023175,0.1384075791354746,0.6455180166466855
0.43074419977545475,0.01171617940985326,8.330859158476683e-08,0.7052800329405537,0.13406494014550774,0.6465363047365807
0.4314581770973573,0.011735128469286241,8.201121926722373e-08,0.6907101414859672,0.12985856450378772,0.6480338982468141
0.4321721544192598,0.011760214251022128,8.105415308459051e-08,0.6779801595723193,0.12578417654979102,0.6499829033091794
0.43288613174116236,0.011791064784227083,8.037597554992353e-08,0.6673895840045577,0.12183763478222237,0.6523535631301559
0.4336001090630649,0.011827297250426708,7.993112147849106e-08,0.6587534662181853,0.11801492764995965,0.6551178960668271
0.43431408638496743,0.011868545951763313,7.96856754899934e-08,0.6518741186489814,0.11431216947497222,0.6582493383195761
0.43502806370686997,0.011914486634336084,7.961402930365342e-08,0.6465559490942903,0.11072559650303837,0.6617244806595364
0.4357420410287725,0.011964825528462878,7.969692069761274e-08,0.6424490810024622,0.10725156307827875,0.6655230872085521
0.43645601835067505,0.012019284858730162,7.991975171448685e-08,0.639461978106484,0.10388653793766352,0.6696247572412287
0.4371699956725776,0.012077622067902574,8.027143916735486e-08,0.6373024996722086,0.10062710062173781,0.6740128488240293
0.4378839729944801,0.01213960185180166,8.07436793778006e-08,0.6358929630433697,0.0974699379979355,0.6786701122654625
0.43859795031638266,0.012205015875611812,8.133025302313103e-08,0.6350468507490138,0.09441184089296167,0.683581926339854
0.4393119276382852,0.012273670261603847,8.202654303516982e-08,0.6347651702808607,0.09144970083082196,0.6887337351983759
0.44002590496018773,0.012345396679924526,8.282925204233375e-08,0.6348628876744208,0.08858050687319127,0.6941139222299403
0.44073988228209027,0.012420020697525855,8.373639404864835e-08,0.6352270720468854,0.08580134255891636,0.6997100205755573
0.4414538596039928,0.012497381341188456,8.474680474774485e-08,0.6359020700578569,0.08310938293955068,0.7055097130837721
0.44216783692589534,0.012577342304550886,8.586000979753002e-08,0.6367851354060703,0.08050189170789301,0.7115033388485537
0.4428818142477979,0.012659767443984546,8.707630120611591e-08,0.637825501307006,0.07797621841662253,0.71768096442975
0.4435957915697004,0.012744528255659197,8.83965781527354e-08,0.6389906601289389,0.07552979578420975,0.7240331293305727
0.44430976889160295,0.012831503973287344,8.982229380453644e-08,0.6402405601526033,0.07316013708535822,0.7305509942198124
0.4450237462135055,0.012920580080996261,9.135540625767156e-08,0.6415599470840626,0.07086483362332699,0.7372260528500264
0.445737723535408,0.013011649362155648,9.299835401181822e-08,0.6429149043159499,0.06864155228156482,0.7440504478098131
0.44645170085731056,0.013104609442001156,9.475403526748689e-08,0.6443008089044681,0.06648803315216908,0.7510165249362976
0.4471656781792131,0.013199365456955423,9.662578083661241e-08,0.6456997189339818,0.06440208723875766,0.758117265751446
0.44787965550111564,0.013295826236881476,9.861739406633496e-08,0.6470867689800974,0.06238159423141985,0.7653459659801713
0.4485936328230182,0.013393903061971057,1.0073316122904826e-07,0.6484478029987784,0.06042450035148551,0.7726960465649302
0.4493076101449207,0.013493523830745618,1.0297753058811051e-07,0.6499506167849366,0.058528816263922284,0.7801611900672178
0.45002158746682325,0.013594626195794692,1.0535564062553132e-07,0.651262305664644,0.056692615055226575,0.7877385215053128
0.4507355647887258,0.013697108943644712,1.0787345480750332e-07,0.6525353130607566,0.0549140302747818,0.7954196215855028
0.4514495421106283,0.013800901777495237,1.1053718598331812e-07,0.6537705757899659,0.053191254037678506,0.8031992111449011
0.45216351943253086,0.013905937817209123,1.1335361773912373e-07,0.6549492599123122,0.051522535187046456,0.8110723739527215
0.4528774967544334,0.014012151128120022,1.1633015481901904e-07,0.6560689709121055,0.0499061775140592,0.8190341758261338
0.45359147407633593,0.014119480035310028,1.1947481280437622e-07,0.6571396735238497,0.04834053803379285,0.8270799356218057
0.45430545139823847,0.014227877489032188,1.227959786080522e-07,0.6582917119628815,0.04682402531518464,0.8352054222084351
0.455019428720141,0.014337301242409799,1.263030124921622e-07,0.6592453472842392,0.045355097863386776,0.8434089704559996
0.45573340604204354,0.014447674620902719,1.3000642429595298e-07,0.6601255997215306,0.043932262552897346,0.8516841547596697
0.4564473833639461,0.01455894507491949,1.3391733857258893e-07,0.660934575358772,0.04255407310986241,0.8600270208934196
0.4571613606858486,0.014671064092123834,1.38047786024074e-07,0.6616850595738316,0.041219128641983294,0.8684338603108692
0.45787533800775115,0.014783997481394199,1.4241044905666137e-07,0.6625115483842099,0.03992607221456192,0.87690138659863
0.4585893153296537,0.014897715138106579,1.470194191300308e-07,0.6631261513615653,0.0386735894712188,0.8854288843879984
0.4593032926515562,0.01501215029495559,1.5189046989481286e-07,0.6636532942512182,0.03746040729791407,0.8940106770016275
0.46001726997345876,0.015127261818349632,1.5704036148275472e-07,0.6641290726435357,0.036285292528897416,0.9026434849056957
0.4607312472953613,0.015243014254459966,1.6248733069890215e-07,0.6645200041906567,0.03514705069324089,0.9113248273484185
0.46144522461726384,0.01535936993538799,1.6825130178943415e-07,0.664845601885831,0.03404452480071842,0.9200517737755846
0.4621592019391664,0.015476305820497424,1.7435354466280404e-07,0.6652391810490577,0.03297659416578866,0.9288218823299713
0.4628731792610689,0.01559380228312042,1.8081770898913487e-07,0.6654142710113617,0.03194217326846821,0.937635212990183
0.46358715658297145,0.01571180449332816,1.8767018562568063e-07,0.6655206122223545,0.03094021065098072,0.94648685124818
0.464301133904874,0.015830284185777803,1.9493943912583686e-07,0.6655576264112231,0.029969687849038404,0.9553746797186512
0.4650151112267765,0.01594921315782583,2.0265680250992213e-07,0.6655058833809588,0.029029618356636894,0.9642966865971713
0.46572908854867906,0.016068573607346315,2.1085617123899668e-07,0.6655356750853276,0.02811904662335765,0.973250625706409
0.4664430658705816,0.016188355439429924,2.1957533812113756e-07,0.66533952082297,0.027237047083123377,0.9822373842161493
0.46715704319248413,0.016308509491675015,2.2885677679651617e-07,0.6650661343533926,0.026382723213471203,0.9912524789965237
0.46787102051438667,0.016429013342278302,2.387468843895044e-07,0.6647252023154382,0.025555206624368523,1.0002941764442328
0.4685849978362892,0.016549845744224984,2.492971936882893e-07,0.6642933213575787,0.024753656175596175,1.009361008219014
0.46929897515819174,0.016670984500998062,2.605650222373776e-07,0.6637946910122441,0.023977257121864513,1.0184511800856033
0.4700129524800943,0.016792422181870086,2.726134372040431e-07,0.6633637756517086,0.02322522028477427,1.0275634146976964
0.4707269298019968,0.016914154055862746,2.8551361368702207e-07,0.6627115433745846,0.02249678125075873,1.0366989056370328
0.47144090712389936,0.017036138692716588,2.993462937184966e-07,0.6619798878471056,0.02179119959426673,1.045853785758734
0.4721548844458019,0.01715835939314636,3.1420151409876e-07,0.6611715620649024,0.021107758125366527,1.0550267882653652
0.47286886176770443,0.017280800374605533,3.3018089871570365e-07,0.6602796899387205,0.020445762160949732,1.0642167668702818
0.47358283908960697,0.01740344610959454,3.4739952374378976e-07,0.659310992008134,0.01980453881887538,1.0734225215467579
0.4742968164115095,0.01752628347776858,3.6598807366464993e-07,0.6582713726365307,0.019183436334320954,1.0826430372093563
0.47501079373341204,0.01764931457956105,3.8609449932294846e-07,0.6573477724816584,0.018581823397652464,1.0918774663182607
0.4757247710553146,0.01777259437675289,4.07889271308704e-07,0.6570205440354714,0.017999088513123047,1.1011273447003829
0.4764387483772171,0.017896105403807885,4.315699271944052e-07,0.6576792959557988,0.017434639377859062,1.1103892634303822
0.47715272569911965,0.01801983666102621,4.5736377189694567e-07,0.6593139851741526,0.01688790228047502,1.1196624592664577
