Time [s],Lmtc [m],STIM [ ],Fsee [N],Gamma [ ],Lcerel [ ]
0.0,0.021298942340306763,0.9999997154323801,1.7204625120556565,0.09293392352338693,1.3612920286324202
0.003403528432373914,0.021270575472910606,0.9999994516866874,3.4968395829965124,0.16427213703801832,1.354292292118737
0.006807056864747828,0.021177823819334522,0.9999990334727953,4.410378166856305,0.22999977680177422,1.3453264762710224
0.010210585297121742,0.021068797549298968,0.9999985309830237,4.935936895764616,0.2905580867601029,1.3360865156041657
0.013614113729495655,0.020956442500109147,0.9999979994522048,5.321109562487743,0.34635361376401014,1.3269157687071145
0.01701764216186957,0.020844314156483162,0.9999974763106749,5.6448548962088285,0.39776093522413136,1.3179009320145285
0.020421170594243483,0.0207334964545568,0.9999969844518652,5.93507200361872,0.4451251720184572,1.3090614406565175
0.023824699026617397,0.02062430947784937,0.999996536392997,6.2033214806459425,0.48876430402380455,1.3003954450752289
0.02722822745899131,0.02051680402616368,0.9999961377622409,6.455151932432037,0.5289713038643742,1.2918939352094956
0.030631755891365225,0.02041092916581334,0.9999957898372789,6.693590380989664,0.5660161031211413,1.283545759101076
0.03403528432373914,0.02030659603486905,0.9999954912736171,6.920479741705955,0.6001474041039708,1.2753395493004593
0.03743881275611305,0.020203704099876794,0.9999952392380858,7.137049819772879,0.6315943492687969,1.2672644707404723
0.040842341188486966,0.02010215239251361,0.9999950301339648,7.344184574986923,0.6605680594289077,1.2593104851193544
0.044245869620860884,0.020001844282959882,0.999994860055064,7.5425575524016315,0.6872630510472003,1.2514684093409703
0.0476493980532348,0.019902689331711226,0.999994725063224,7.732705459189132,0.7118585420980351,1.243729886509471
0.05105292648560872,0.01980460378631597,0.9999946213521108,7.915070695789083,0.734519655248493,1.236087322321736
0.054456454917982636,0.019707510451167143,0.9999945453384539,8.090027350891942,0.7553985264256418,1.2285338109149877
0.05785998335035655,0.01961133828066422,0.9999944937074442,8.257897908481363,0.7746353262052296,1.221063061040825
0.06126351178273047,0.01951602186751302,0.9999944634295611,8.418964481594221,0.7923592008745576,1.2136693272213341
0.06466704021510439,0.01942150091042107,0.9999944517599628,8.573476676458219,0.8086891394846815,1.2063473475763944
0.0680705686474783,0.019327719701419385,0.9999944562275951,8.721657297295778,0.8237347727113182,1.1990922886067668
0.07147409707985222,0.01923462665055448,0.999994474618602,8.863706615602128,0.8375971088866873,1.191899696579583
0.07487762551222614,0.019142173854178945,0.9999945049569459,8.999805652484307,0.8503692121431886,1.1847654549038906
0.07828115394460006,0.01905031670726376,0.9999945454840601,9.130118761398078,0.8621368272214277,1.1776857468110908
0.08168468237697397,0.01895901355735861,0.9999945946386553,9.254795701041532,0.8729789551372223,1.1706570226707516
0.08508821080934789,0.018868225396620628,0.9999946510373389,9.37397332731909,0.8829683835724053,1.1636759713266496
0.08849173924172181,0.01877791558796065,0.9999947134564166,9.487776994272615,0.8921721755503308,1.1567394949059617
0.09189526767409573,0.018688049621410227,0.9999947808150519,9.596321728194223,0.9006521196769762,1.149844686623868
0.09529879610646964,0.018598594897069932,0.9999948521598437,9.69971322181321,0.9084651449705048,1.1429888111707205
0.09870232453884356,0.01850952053134062,0.9999949266508046,9.798048683494518,0.9156637030644147,1.136169287327054
0.10210585297121748,0.018420797183500454,0.9999950035486808,9.89141756795833,0.9222961203503688,1.129383672502535
0.1055093814035914,0.018332396900039016,0.9999950822035296,9.979902208969131,0.9284069224249678,1.1226296489386893
0.10891290983596531,0.018244292974480783,0.9999951620444578,10.063578370001515,0.9340371330187832,1.11590501135262
0.11231643826833923,0.018156459820717386,0.9999952425704199,10.142515725580424,0.9392245494146443,1.1092076558306443
0.11571996670071315,0.018068872858120835,0.9999953233419775,10.2167782834863,0.9440039962043131,1.1025355698076518
0.11912349513308707,0.017981508406929893,0.9999954039739233,10.286424756089016,0.948407559087255,1.095886822990694
0.12252702356546098,0.017894343592591892,0.9999954841286801,10.35150888757248,0.9524648002811995,1.0892595591045153
0.1259305519978349,0.017807351956097353,0.9999955635103912,10.4118410667777,0.9562029569907382,1.0826519883529564
0.1293340804302088,0.017720506658838578,0.9999956418596224,10.467168192645142,0.9596471242664555,1.0760623805038534
0.1327376088625827,0.017633786862243216,0.9999957189486076,10.517533724696758,0.9628204234822727,1.0694890585166672
0.1361411372949566,0.017547172212416362,0.9999957945769701,10.5629775519216,0.9657441575621459,1.062930392641847
0.1395446657273305,0.01746064275806608,0.9999958685678604,10.6035352143364,0.9684379539982767,1.056384794929226
0.14294819415970442,0.017374178889561633,0.9999959407644561,10.639238072292176,0.9709198966210303,1.0498507140897162
0.14635172259207832,0.01728776128099148,0.9999960110267714,10.670113453209542,0.9732066470052418,1.0433266306604545
0.14975525102445222,0.017201370834714257,0.9999960792287297,10.696184777548137,0.975313556327999,1.0368110524284786
0.15315877945682613,0.017114988627935236,0.9999961452554528,10.71747166551794,0.9772547684288945,1.0303025100721086
0.15656230788920003,0.017028595860872412,0.9999962090007253,10.733990025779681,0.9790433147646561,1.0237995529826125
0.15996583632157393,0.016942173806100993,0.9999962703645894,10.745752127151235,0.9806912018956598,1.0173007452314704
0.16336936475394784,0.016855703758683692,0.9999963292510303,10.752766654129953,0.9822094920916863,1.01080466165075
0.16677289318632174,0.016769167036077594,0.9999963855657626,10.755041530849887,0.9836083775980684,1.0043098839957723
0.17017642161869564,0.01668254667882099,0.9999964392185073,10.752679762727967,0.9848972490608446,0.9978150009638294
0.17357995005106955,0.01659582033875917,0.9999964901328194,10.745333005579011,0.9860847585706395,0.9913188017130532
0.17698347848344345,0.016508973143652593,0.9999965382373142,10.73283587179587,0.9871788777490892,0.9848203976241215
0.18038700691581736,0.01642199322073882,0.9999965834555515,10.715182015838185,0.988186951266255,0.9783189184822038
0.18379053534819126,0.01633486851058083,0.9999966257035368,10.692362639145554,0.989115746148291,0.9718134883787005
0.18719406378056516,0.016247586746063317,0.999996664887355,10.664366470723525,0.9899714972072226,0.9653032242654758
0.19059759221293907,0.01616013543038639,0.9999967009004,10.631179741175526,0.9907599488984575,0.9587872344745391
0.19400112064531297,0.016072501813937993,0.9999967336198556,10.59278615002841,0.9914863938888887,0.952264617196047
0.19740464907768687,0.015984672869914,0.9999967629017776,10.549166826152296,0.9921557085994726,0.9457344589070528
0.20080817751006078,0.015896635268541685,0.9999967885736883,10.500300281026307,0.9927723859722689,0.939195832742957
0.20421170594243468,0.01580837534974697,0.999996810423092,10.44616235455159,0.9933405657045312,0.9326477968030363
0.20761523437480858,0.015719879094088215,0.9999968281799967,10.386726153060874,0.9938640621915035,0.9260893923807462
0.2110187628071825,0.015631132091759536,0.9999968414917053,10.321961979118512,0.9943463904219367,0.9195196421087294
0.2144222912395564,0.01554211950944378,0.9999968498890642,10.251837252645087,0.9947907900682483,0.9129375480075614
0.2178258196719303,0.015452826054768824,0.9999968527450402,10.176316422831208,0.9952002479953217,0.9063420894262222
0.2212293481043042,0.015363235938090703,0.9999968492284822,10.095360870222487,0.9955775193670252,0.8997322208611173
0.2246328765366781,0.015273332831291803,0.9999968382574502,10.008928798255381,0.9959251474526905,0.8931068696391103
0.228036404969052,0.015183099823241793,0.9999968184567453,9.916975113400886,0.9962454821337793,0.8864649334485009
0.2314399334014259,0.015092519371522024,0.9999967881227982,9.819451292928894,0.9965406970032823,0.8798052777001503
0.2348434618337998,0.015001573249959379,0.999996745196034,9.716305239146644,0.9968128048650648,0.8731267326989585
0.2382469902661737,0.01491024249145222,0.9999966872367937,9.607481118795024,0.9970636714046537,0.8664280906036328
0.24165051869854762,0.014818507325496635,0.9999966113963937,9.492919186113607,0.9972950268337246,0.8597081021500493
0.24505404713092152,0.014726347109733931,0.9999965143697247,9.372555587910004,0.9975084754079113,0.852965473110461
0.24845757556329542,0.014633740254736625,0.9999963923084914,9.246322148788346,0.9977055028644579,0.8461988604572244
0.25186110399566936,0.014540664141126976,0.9999962406615581,9.114146134495513,0.9978874819938139,0.8394068681955426
0.25526463242804326,0.01444709502797415,0.9999960538849624,8.975949991118252,0.9980556767149874,0.8325880428248031
0.25866816086041716,0.014353007951238167,0.9999958249211571,8.83165105759219,0.9982112451400782,0.825740868382338
0.26207168929279107,0.014258376610813413,0.9999955442643023,8.681161248647665,0.9983552421699416,0.8188637610166706
0.26547521772516497,0.014163173244462868,0.9999951982702711,8.524386704899085,0.9984886221511012,0.8119550630293958
0.2688787461575389,0.014067368486614409,0.9999947660425327,8.36122740626569,0.9986122420412293,0.8050130363155196
0.2722822745899128,0.01397093120959787,0.999994213475897,8.191576744272432,0.9987268653732697,0.7980358551211318
0.2756858030222867,0.013873828344415473,0.9999934811227421,8.015321047992112,0.9988331670571315,0.7910215980243467
0.2790893314546606,0.01377602467753276,0.9999924569650921,7.8323390574142335,0.998931738639307,0.7839682390301411
0.2824928598870345,0.013677482619415258,0.9999909061398867,7.6425013367814385,0.9990230927944972,0.7768736376515405
0.2858963883194084,0.013578161939570128,0.9999882464727097,7.445669618762085,0.9991076635463244,0.769735527828114
0.2892999167517823,0.01347801946162021,0.9999825665765554,7.241696068040445,0.9991857901208292,0.7625515055077752
0.2927034451841562,0.013377008710725976,0.9999617513948196,7.030422464542666,0.9992576255121935,0.7553190146928219
0.2961069736165301,0.01327530656652949,3.7553844676797275e-05,6.821872847338813,0.9993223504490072,0.7480353317794488
0.299510502048904,0.013171228296621821,5.845648327450048e-06,6.533127206170339,0.8584335231713669,0.7407151942691859
0.3029140304812779,0.013065833715888537,2.20735407999042e-06,6.199817145386436,0.7374042924989064,0.7333851543171422
0.3063175589136518,0.012958892614942073,1.0266528625913882e-06,5.804592191692499,0.6334385901345835,0.7260666333599923
0.3097210873460257,0.012850182402389443,5.302427101325785e-07,5.327975346247696,0.544130957383873,0.71879305636663
0.3131246157783996,0.012739673299248258,2.9535279005856123e-07,4.755849706995542,0.46741483374084036,0.7116150495226952
0.3165281442107735,0.012627933513885343,1.761114944501786e-07,4.0934048005216175,0.4015149656793406,0.704607581481807
0.3199316726431474,0.012516740665491702,1.1226564852897287e-07,3.37918912618669,0.34490637400887825,0.6978800941371887
0.32333520107552133,0.01240969341825518,7.628182533240843e-08,2.6849030963631013,0.29627907949843446,0.6915921310859505
0.32673872950789523,0.012312692850805893,5.480871228899015e-08,2.0935742005987894,0.2545077944143258,0.6859876779706967
0.33014225794026913,0.012233664126443923,4.13779459002665e-08,1.6419454729688512,0.21862588466708652,0.6815035622453793
0.33354578637264304,0.012180224423714229,3.270734952011043e-08,1.2786499156121207,0.1878030020341342,0.6788088391379979
0.33694931480501694,0.012150298452357773,2.6471118265334233e-08,0.9356313060831057,0.16132586951818656,0.6779904701725464
0.34035284323739085,0.01212892342411413,1.8050604246304706e-07,0.6139045772281404,0.13858177548426034,0.677990405468054
0.34094931480501695,0.012143715817834697,1.7596208683830522e-07,0.8293654086899536,0.13493978468080076,0.6779904054680539
0.34154578637264305,0.012149933709555534,1.7230344765902388e-07,0.8239001149318551,0.13139351393068627,0.6784830806624591
0.34214225794026915,0.012160673945198612,1.6934748108469132e-07,0.8106847352430855,0.12794044750672365,0.6793525612115444
0.34273872950789525,0.012176519204501614,1.6699922904230647e-07,0.7963805923900729,0.12457813579620815,0.6806108498482017
0.34333520107552135,0.012197387291647776,1.6515762966893935e-07,0.7831220472183488,0.12130419356558203,0.6822414089355779
0.34393167264314745,0.012223043576043523,1.6374040214142497e-07,0.77148739163259,0.11811629826823754,0.6842236487028562
0.34452814421077355,0.012253226240033499,1.6268326691309854e-07,0.7615470727511086,0.11501218839744828,0.6865374055743518
0.34512461577839965,0.012287679328781373,1.6193623851477947e-07,0.7531968835813455,0.11198966188256931,0.6891638445909175
0.34572108734602575,0.01232616208665577,1.6146031761813437e-07,0.7462763403242559,0.10904657452729113,0.6920855875372383
0.34631755891365185,0.012368451072799313,1.6122493421923512e-07,0.7406144105221647,0.10618083848885365,0.6952866421204743
0.34691403048127795,0.012414339834737956,1.612060310574089e-07,0.736047669743831,0.1033904207971623,0.6987522804319451
0.34751050204890405,0.012463637746384955,1.6138463223634064e-07,0.7324270891064362,0.10067334191277545,0.7024689110357726
0.34810697361653015,0.012516168608207996,1.6174576931614526e-07,0.7296198992734556,0.09802767432275306,0.7064239587653608
0.34870344518415625,0.012571769244515738,1.6227766985069547e-07,0.7275092982739617,0.09545154117338203,0.7106057563169301
0.34929991675178235,0.012630288189774257,1.6297113958544682e-07,0.7259932563111208,0.09294311493881569,0.7150034481774014
0.34989638831940845,0.012691584495783483,1.6381908874847338e-07,0.7249830029774488,0.09050061612468746,0.7196069061462967
0.35049285988703455,0.012755526665442003,1.648161665733472e-07,0.7244014719966655,0.08812231200578513,0.7244066552982354
0.35108933145466065,0.012821991707537148,1.6595847791987494e-07,0.724181828946071,0.08580651539689185,0.7293938091614808
0.35168580302228675,0.012890864302454463,1.6724336278808202e-07,0.7242661336075175,0.08355158345592517,0.7345600129513519
0.35228227458991285,0.012962036067310332,1.6866922449365118e-07,0.7246041520234697,0.08135591651852657,0.7398973938087015
0.35287874615753895,0.013035404909093839,1.7023539587384844e-07,0.7251523155593951,0.07921795696327603,0.7453985171162139
0.35347521772516505,0.013110874455146634,1.719420355254651e-07,0.725872816152751,0.07713618810672851,0.7510563480834371
0.35407168929279115,0.013188353551312171,1.7379004801978805e-07,0.7267328237911718,0.07510913312748804,0.7568642178991706
0.35466816086041725,0.013267755819149359,1.7578102348863158e-07,0.7277038116667124,0.0731353540185581,0.7628157938452893
0.35526463242804335,0.013348999264634157,1.7791719306662928e-07,0.7287609751054522,0.07121345056722496,0.7689050528494162
0.35586110399566945,0.013432005931722165,1.8020139750508807e-07,0.729882731582324,0.06934205936175096,0.7751262580259757
0.35645757556329555,0.013516701594999727,1.8263706691103626e-07,0.7310502905345216,0.06751985282417342,0.7814739378173136
0.35705404713092165,0.013603015486407561,1.8522821006170647e-07,0.7322472830944995,0.06574553826852346,0.7879428673999469
0.35765051869854775,0.013690880051684864,1.8797941213614006e-07,0.7334594431829479,0.06401785698379658,0.7945280520668464
0.35824699026617385,0.013780230732760364,1.9089584001887445e-07,0.7346743325936876,0.0623355833410251,0.8012247123359673
0.35884346183379995,0.013871005772819061,1.939832545859256e-07,0.7358811037545561,0.06069752392381876,0.8080282705689821
0.35943993340142605,0.01396314604120846,1.9724802959576692e-07,0.7370702947644461,0.05910251668175748,0.8149343389131428
0.36003640496905215,0.014056594875724278,2.0069717698947484e-07,0.7382336520969242,0.057549430106035054,0.8219387084040978
0.36063287653667825,0.01415129794014039,2.04338378563846e-07,0.7393639770384457,0.05603716242676978,0.8290373390888861
0.36122934810430435,0.014247203095128752,2.0818002412651256e-07,0.7404549925079115,0.05456464083141259,0.836226351046802
0.36182581967193045,0.014344260280957304,2.122312563789992e-07,0.7415012273973693,0.053130820703697845,0.8435020162016886
0.36242229123955655,0.014442421410563368,2.1650202290756758e-07,0.7424979159929994,0.05173468488259807,0.8508607508329621
0.36301876280718265,0.01454164027178128,2.2100313579733178e-07,0.7434409103920199,0.05037524294075611,0.8582991087045193
0.36361523437480875,0.014641872437659565,2.257463395269832e-07,0.7443266041340074,0.049051530481883515,0.8658137747409392
0.36421170594243485,0.014743075183938852,2.3074438795401773e-07,0.745151865522528,0.04776260845662659,0.8734015591892955
0.36480817751006095,0.014845207412878939,2.3601113136824546e-07,0.7459139793317926,0.046507562496415356,0.8810593922125791
0.36540464907768705,0.01494822958272592,2.415616147796775e-07,0.7466105957791718,0.04528550226482263,0.8887843188674677
0.36600112064531315,0.0150521036421984,2.4741218882128453e-07,0.7472396858028698,0.04409556082597374,0.8965734944249683
0.36659759221293925,0.015156792969449035,2.535806348942225e-07,0.7477995018190474,0.04293689402955851,0.9044241799975513
0.36719406378056535,0.015262262315024675,2.6008630647066666e-07,0.7482885432478024,0.04180867991201031,0.9123337384408131
0.36779053534819145,0.01536847774840646,2.6695028880669997e-07,0.7487055261956825,0.040710118113426876,0.9202996305015505
0.36838700691581755,0.01547540660776243,2.7419557971605556e-07,0.7490493567664391,0.03964042930982023,0.9283194111875172
0.36898347848344365,0.015583017452589358,2.8184729452873663e-07,0.7493191075435061,0.038598854660293135,0.9363907263370692
0.36957995005106975,0.015691280018959454,2.899328989237006e-07,0.7495139968492669,0.037584655268750454,0.944511309369493
0.37017642161869585,0.01580016517712143,2.98482474003106e-07,0.7496333704389044,0.03659711165976413,0.9526789781990675
0.37077289318632195,0.01590964489123517,3.075290187936111e-07,0.7496766853319241,0.03563552326822062,0.9608916322978996
0.37136936475394805,0.016019692181045247,3.1710879635125793e-07,0.7496434955233368,0.034699207942389634,0.9691472498943139
0.37196583632157415,0.016130281085321368,3.272617308527783e-07,0.749533439350003,0.0337875014600624,0.9774438852951073
0.37256230788920025,0.016241386626913854,3.380318645314676e-07,0.7493462283164313,0.03289975705741747,0.9857796663213269
0.37315877945682635,0.016352984779266482,3.4946788511408657e-07,0.7490816368617965,0.03203534497028106,0.9941527918484155
0.37375525102445245,0.016465052432558604,3.61623734546369e-07,0.7487394685115014,0.031193651987457976,1.002561529437451
0.37435172259207855,0.016577567354627367,3.745593104613944e-07,0.7483194847402597,0.030374081015818115,1.0110042127629548
0.37494819415970465,0.016690508170678495,3.883412961140525e-07,0.747821574725966,0.029576050656831974,1.0194792392354994
0.37554466572733075,0.01680385433689236,4.0304413362948095e-07,0.7472456934558953,0.028798994794257536,1.027985068333738
0.37614113729495685,0.016917586111380008,4.1875116365817525e-07,0.7465918241884607,0.028042362192689376,1.036520219615017
0.37673760886258295,0.017031684527538497,4.355559712832939e-07,0.7458599737730701,0.027305616106688815,1.0450832707403412
0.37733408043020905,0.0171461313682899,4.535639832253946e-07,0.7450501685240599,0.02658823390022236,1.0536728555628359
0.37793055199783515,0.017260909141152126,4.7289437267571156e-07,0.7441624505881697,0.025889706676144233,1.0622876622761506
0.37852702356546125,0.01737600105409557,4.936823429911014e-07,0.7431968747519536,0.025209538915467143,1.0709264316196285
0.37912349513308735,0.01749139099214445,5.16081880970232e-07,0.7421535056415394,0.02454724812617362,1.0795879551374092
0.37971996670071345,0.017607063494685892,5.402690961238703e-07,0.7410324152724406,0.023902364501330115,1.0882710734889198
0.38031643826833955,0.017723031254384375,5.664462965294116e-07,0.7402407621359219,0.023274430586274212,1.0969746748084817
0.38091290983596565,0.017839316077569542,5.948469977520358e-07,0.7403107620525552,0.022663000954656145,1.1056976931119757
