Time [s],Lmtc [m],STIM [ ],Fsee [N],Gamma [ ],Lcerel [ ]
0.0,0.02087844412804238,0.9999997914702788,1.5163126787128562,0.08647996108413251,1.3304478664905648
0.00281905950514317,0.02088055180306695,0.9999996570847808,3.31358051883318,0.14640283460946896,1.325467084518938
0.00563811901028634,0.020816100992699083,0.9999994291752624,4.407275396568269,0.2023950229928177,1.3181974541309056
0.00845717851542951,0.0207287535822727,0.9999991384901936,5.025457367569703,0.2547143557159526,1.310402330341584
0.01127623802057268,0.0206339052906324,0.9999988131682392,5.434503662390897,0.30360175180025556,1.3025065626888774
0.014095297525715849,0.02053681779868357,0.9999984755093488,5.749222005080722,0.34928232888717636,1.2946426143824676
0.016914357030859018,0.02043942931988505,0.9999981415638677,6.01553746802451,0.39196643935610465,1.2868577029353385
0.019733416536002187,0.020342513951499754,0.9999978220578611,6.253263934707889,0.43185063845052357,1.2791685975538651
0.022552476041145356,0.02024639237267763,0.9999975236282684,6.471953321804849,0.4691185889600541,1.2715795512247883
0.025371535546288525,0.0201511915629198,0.999997249952644,6.676665016471871,0.5039419066403639,1.2640895055827284
0.028190595051431695,0.020056947438677114,0.9999970026520648,6.870205219242828,0.5364809502513643,1.2566951158290205
0.031009654556574864,0.019963651081953887,0.9999967819660266,7.054270331027581,0.5668855598316095,1.2493919227839563
0.033828714061718036,0.01987127155205898,0.9999965872376689,7.229977382552798,0.5952957465894194,1.242175010637364
0.036647773566861205,0.019779767207111477,0.9999964172539808,7.398096302697742,0.621842337572015,1.235039385830518
0.039466833072004374,0.019689092637039263,0.9999962704801196,7.5592330906283935,0.6466475780695184,1.2279801499449114
0.042285892577147544,0.01959920306184694,0.9999961452183649,7.713916923419711,0.669825694519272,1.2209926623932248
0.04510495208229071,0.019510054020713683,0.9999960397142391,7.862492403214604,0.6914834204965462,1.2140726665643455
0.04792401158743388,0.019421600013988533,0.9999959522259033,8.005132427575738,0.711720488209535,1.2072161456017
0.05074307109257705,0.01933379643170868,0.9999958810680918,8.142031334884026,0.7306300877589981,1.2004191540785656
0.05356213059772022,0.01924660196468061,0.9999958246385764,8.273456614101233,0.7482992962753805,1.1936779175973327
0.05638119010286339,0.01915997883552409,0.9999957814328357,8.399662729121802,0.7648094789081598,1.1869889802621125
0.05920024960800656,0.01907389162243818,0.9999957500508188,8.520829515670412,0.7802366635130251,1.1803492040222554
0.06201930911314973,0.0189883064200871,0.999995729198439,8.637080657166393,0.7946518907616739,1.1737556713106458
0.0648383686182929,0.018903190825921564,0.9999957176856171,8.748528112597894,0.8081215412860441,1.1672056134479918
0.06765742812343607,0.018818514182062804,0.9999957144221486,8.855289759807437,0.8207076413632024,1.1606964006181506
0.07047648762857925,0.01873424760515524,0.9999957184122861,8.957481904441282,0.8324681485483759,1.1542255537539843
0.07329554713372242,0.018650363787295888,0.9999957287486316,9.055208512866383,0.843457218571366,1.1477907437630936
0.0761146066388656,0.01856683674384733,0.9999957446057367,9.14855836264173,0.8537254547253303,1.14138977502495
0.07893366614400878,0.018483641598748175,0.9999957652336635,9.237607004992071,0.8633201408963375,1.1350205648818976
0.08175272564915195,0.0184007544045158,0.9999957899516728,9.322418830252342,0.8722854593067959,1.128681125862331
0.08457178515429513,0.018318152000846164,0.9999958181421383,9.403049321943906,0.8806626939754527,1.1223695507711633
0.0873908446594383,0.0182358119879938,0.9999958492447559,9.479551367920887,0.8884904208309161,1.1160840008532562
0.09020990416458148,0.018153712856818868,0.9999958827511201,9.551984300974052,0.8958046853541914,1.1098227021670382
0.09302896366972466,0.01807183411049366,0.999995918199723,9.620414607466275,0.9026391685682906,1.1035839533869263
0.09584802317486783,0.01799015617910409,0.9999959551713558,9.68490516232608,0.9090253421393315,1.0973661341837349
0.09866708268001101,0.01790866016971049,0.9999959932848267,9.745505276888744,0.9149926133033808,1.0911676998483204
0.10148614218515419,0.01782732590310201,0.999996032192939,9.802157196783552,0.9205684602864608,1.0849871636270305
0.10430520169029736,0.017746128902435127,0.9999960715786947,9.854544814775629,0.9257785588413336,1.0788230787415576
0.10712426119544054,0.017665050981835947,0.9999961111517389,9.902669393501604,0.930646900483779,1.0726740301674167
0.10994332070058371,0.017584075025676698,0.9999961506450713,9.946568971802863,0.9351959029728665,1.0665386368688399
0.11276238020572689,0.017503184371540043,0.9999961898120022,9.98628136833539,0.939446513543988,1.0604155569361455
0.11558143971087007,0.01742236287855247,0.9999962284232989,10.021847705517333,0.9434183053700594,1.0543034876005075
0.11840049921601324,0.017341594865773073,0.999996266264492,10.053305793897,0.9471295676951079,1.048201169519964
0.12121955872115642,0.01726086472593635,0.9999963031333107,10.080671594721858,0.9505973900553134,1.042107383023801
0.1240386182262996,0.017180156839637906,0.999996338837154,10.103953245973619,0.9538377409753566,1.0360209220561047
0.12685767773144277,0.017099455477484374,0.9999963731905569,10.123152117986747,0.9568655415024636,1.0299405852191263
0.12967673723658593,0.017018744665304973,0.9999964060126597,10.138260922718256,0.9596947339167775,1.023865168134665
0.1324957967417291,0.016938008189332342,0.9999964371246551,10.149271150205266,0.962338345934469,1.0177934535635835
0.13531485624687226,0.016857229742103002,0.9999964663471727,10.156181747088507,0.9648085506992302,1.0117242104490065
0.13813391575201542,0.016776393282004212,0.9999964934975613,10.15901195499755,0.9671167228384301,1.005656203318002
0.14095297525715858,0.016695484640706974,0.9999965183887682,10.15787132471643,0.9692734908420455,0.9995882170018822
0.14377203476230174,0.01661448606234245,0.9999965408364261,10.15257958776995,0.9712887860056988,0.9935191672502084
0.1465910942674449,0.016533380819548242,0.9999965606550676,10.142793027580156,0.9731718881637095,0.9874482745225561
0.14941015377258807,0.01645215839710326,0.9999965776460287,10.128517824964646,0.9749314684220107,0.9813747504400555
0.15222921327773123,0.016370808386087145,0.9999965915925425,10.10976267499061,0.9765756290871828,0.975297815251335
0.1550482727828744,0.01628932044545689,0.9999966022551801,10.086533534029646,0.9781119409759953,0.9692167021709414
0.15786733228801755,0.01620768445907809,0.9999966093664765,10.058843669759643,0.9795474782773089,0.9631306553910767
0.16068639179316072,0.016125890656074903,0.9999966126245223,10.026712881923881,0.9808888511268391,0.9570389401564272
0.16350545129830388,0.016043929373737754,0.9999966116852219,9.990147964971914,0.9821422360447339,0.9509408519088005
0.16632451080344704,0.01596179046512406,0.9999966061528631,9.949121205678106,0.9833134043760812,0.9448357018116754
0.1691435703085902,0.015879462893772324,0.9999965955685151,9.903578238217257,0.9844077488652149,0.938722776099494
0.17196262981373336,0.015796934794368236,0.9999965793955446,9.85346437561465,0.9854303084861149,0.9326013047280809
0.17478168931887653,0.01571419397678474,0.9999965570012326,9.798751577231426,0.9863857916430807,0.9264704619516059
0.1776007488240197,0.015631228346319182,0.999996527633135,9.739436828901889,0.9872785978483474,0.9203293999245854
0.18041980832916285,0.015548025825453476,0.9999964903884325,9.675515026759175,0.9881128379761918,0.9141772805997975
0.183238867834306,0.015464573824003104,0.9999964441738629,9.606951830750154,0.9888923531864805,0.9080132744897321
0.18605792733944918,0.015380859207944917,0.9999963876525879,9.53370741670219,0.9896207326043428,0.9018365258377172
0.18887698684459234,0.015296867984881798,0.9999963191724618,9.455724258282874,0.9903013298368855,0.895646146951261
0.1916960463497355,0.015212585555153379,0.9999962366672174,9.372955778495626,0.9909372784023873,0.8894411972649933
0.19451510585487866,0.015127997450077556,0.9999961375180112,9.285394892103854,0.9915315061425096,0.8832206981221377
0.19733416536002182,0.015043089877888214,0.9999960183540112,9.193066540975758,0.992086748683679,0.8769836836993241
0.20015322486516499,0.014957846008520622,0.9999958747634944,9.095805470863695,0.9926055620100438,0.8707292430598921
0.20297228437030815,0.014872248847586901,0.9999957008607169,8.99357540025436,0.9930903342075106,0.8644562796251019
0.2057913438754513,0.014786281911644363,0.999995488611563,8.886387785849019,0.993543296435102,0.858163676581494
0.20861040338059447,0.014699927370895635,0.9999952267556255,8.774163572006453,0.9939665331748397,0.8518503598678732
0.21142946288573763,0.01461316669888567,0.9999948990130767,8.656847581847348,0.9943619918020459,0.8455151825220908
0.2142485223908808,0.01452597996675857,0.9999944809523462,8.534351624824772,0.9947314914975232,0.8391569568431224
0.21706758189602396,0.014438346830626506,0.999993934186326,8.406633976410678,0.9950767314796107,0.832774412141748
0.21988664140116712,0.014350246394354617,0.9999931948050043,8.2736506830347,0.9953992984415003,0.8263662573410299
0.22270570090631028,0.014261656168152842,0.9999921480369715,8.135306654337146,0.9957006728715575,0.8199311795072508
0.22552476041145345,0.014172552417415978,0.9999905652609218,7.991519925539676,0.9959822334151242,0.813467776288542
0.2283438199165966,0.014082910978453243,0.9999879165751004,7.842250049210663,0.9962452569173427,0.8069745745962588
0.23116287942173977,0.013992705463663633,0.9999826311602826,7.687375382694251,0.9964909062858044,0.8004500887485978
0.23398193892688293,0.013901907405094375,0.9999670756673169,7.526775803678629,0.9967201710604955,0.7938927093981586
0.2368009984320261,0.013810647606382167,0.0003048911863044509,7.367862525951991,0.9969334860291752,0.7873007060549331
0.23962005793716926,0.013717700913197444,9.334568225815114e-06,7.148766233506993,0.8790558558150943,0.7806829094367826
0.24243911744231242,0.013623882179113433,3.405431852548241e-06,6.90021184884447,0.7750855483911646,0.7740540491357947
0.24525817694745558,0.013529059177659399,1.6249992050702308e-06,6.612556105474436,0.6834118954468228,0.7674235320855891
0.24807723645259874,0.01343307906428966,8.685030971632275e-07,6.273761092013429,0.602580969212502,0.7608057284384797
0.25089629595774193,0.01333578420203525,4.966601190864721e-07,5.870093748687964,0.5313104393821714,0.7542217406708768
0.2537153554628851,0.013237124557186364,2.9887399479044576e-07,5.3915294052965175,0.46846957095565345,0.7477006427495898
0.25653441496802826,0.0131373088013936,1.8821964759905946e-07,4.836221120121093,0.4130613446171479,0.741284474660263
0.2593534744731714,0.013037067951244265,1.239174701082266e-07,4.2187338606841855,0.3642066557958263,0.7350315204523362
0.2621725339783146,0.012937914130769819,8.526893249994595e-08,3.572563051969142,0.3211303734537468,0.7290228276367517
0.26499159348345774,0.012842379789096203,6.121104693869732e-08,2.9472548950181126,0.28314904472371694,0.7233688338389983
0.2678106529886009,0.012754193014804663,4.5624843172806374e-08,2.395412897567133,0.24966005257730142,0.7182283355520938
0.27062971249374407,0.012678327723144414,3.51442628995263e-08,1.949888254572946,0.22013205534266234,0.7138575703072382
0.27344877199888723,0.012620168717843203,2.797920414349251e-08,1.5926221488068526,0.19409655675388085,0.7106673086878722
0.2762678315040304,0.012583006130596378,2.2915356254968214e-08,1.292039009233173,0.171140472935191,0.7089729101300228
0.27908689100917355,0.012560234777212506,1.89412698138683e-08,0.9851207388786308,0.15089957842599097,0.7085224432797261
0.2819059505143167,0.012541735498577457,1.3736063912263697e-07,0.694712345571865,0.13305272735000973,0.7085223988548661
0.28242022434250685,0.012555835596981344,1.3422190072080895e-07,0.9114837569206244,0.13003240215869924,0.7085223988548658
0.282934498170697,0.012560196509690612,1.3152792032589975e-07,0.9151191889169961,0.12708064414412515,0.7088329461336308
0.28344877199888713,0.012567412193538154,1.2925348093549828e-07,0.906558855205288,0.12419589670829934,0.7094133800759597
0.28396304582707727,0.012578614875178678,1.273810536377682e-07,0.8934193791486623,0.12137663859045908,0.7103142021959832
0.2844773196552674,0.012594034299747349,1.2585697560448684e-07,0.8797379208871499,0.11862138306501743,0.7115343196309416
0.28499159348345754,0.012613585227980166,1.246299101052095e-07,0.86691783621887,0.11592867715672776,0.7130608289929363
0.2855058673116477,0.01263709885656387,1.236573052543941e-07,0.855407370298035,0.11329710087453795,0.7148788735431156
0.2860201411398378,0.012664387957543592,1.2290489073687046e-07,0.8452987786803604,0.11072526646298483,0.7169738540701138
0.28653441496802795,0.012695267104196328,1.2234519522449859e-07,0.8365443108412606,0.10821181767057163,0.719331975058305
0.2870486887962181,0.012729559385122081,1.2195616453728088e-07,0.8290418771317787,0.10575542903472088,0.7219403571395273
0.2875629626244082,0.012767098456340912,1.2172004337104956e-07,0.8226717116343426,0.10335480518292944,0.7247870190858241
0.28807723645259836,0.012807728823939511,1.2162250229342468e-07,0.8173127322490139,0.10100868014976266,0.7278608190002045
0.2885915102807885,0.012851305426245529,1.2165196197207738e-07,0.8128498210796421,0.09871581670933495,0.731151384904705
0.28910578410897864,0.012897692949507895,1.2179906943669597e-07,0.8091768519917691,0.09647500572292829,0.7346490455782435
0.2896200579371688,0.012946765064153893,1.2205629056947966e-07,0.8061976093630921,0.09428506550140965,0.738344765912567
0.2901343317653589,0.01299840366310568,1.224175914528613e-07,0.8038257220740325,0.09214484118211348,0.7422300876468865
0.29064860559354905,0.013052498141289552,1.228781876655183e-07,0.8019841090820151,0.09005320411986265,0.7462970760297677
0.2911628794217392,0.013108944729928287,1.2343434622014021e-07,0.8006042188125057,0.08800905129180904,0.7505382720130029
0.2916771532499293,0.013167645889709038,1.240832285065411e-07,0.7996252089134427,0.08601130471578086,0.7549466495069109
0.29219142707811946,0.013228509762059812,1.2482276542220826e-07,0.7989931376379711,0.08405891088183075,0.7595155772267275
0.2927057009063096,0.013291449675141117,1.256515580085467e-07,0.7986602029933395,0.08215084019668639,0.7642387846403543
0.29321997473449973,0.013356383700169625,1.265687984804112e-07,0.7985840455286017,0.08028608644081063,0.7691103315612963
0.29373424856268987,0.013423234253417998,1.2757420771542953e-07,0.7987271196048372,0.07846366623778585,0.7741245809730384
0.29424852239088,0.013491927739325674,1.2866798616334517e-07,0.7990561321467973,0.07668261853574258,0.779276174714615
0.29476279621907014,0.013562394230422688,1.2985077581822988e-07,0.7995415448453647,0.07494200410056,0.7845600116988842
0.2952770700472603,0.013634567180110444,1.3112363142261337e-07,0.8001571344850279,0.07324090502057069,0.7899712283726783
0.2957913438754504,0.013708383164713706,1.3248799948219925e-07,0.8008796056369529,0.07157842422250878,0.7955051811624632
0.29630561770364056,0.013783781651580052,1.3394570399149374e-07,0.8016882499768083,0.06995368499844658,0.801157430679819
0.2968198915318307,0.013860704790347882,1.3549893802705654e-07,0.8025646469424753,0.06836583054347059,0.8069237274875289
0.29733416536002083,0.013939097224823168,1.371502605713913e-07,0.803492400693172,0.06681402350385277,0.8127999992519899
0.29784843918821097,0.014018905923187974,1.389025980995597e-07,0.8044569090427667,0.06529744553547912,0.818782339127112
0.2983627130164011,0.014100080024529326,1.4075925060228474e-07,0.8054451603451729,0.06381529687230283,0.8248669952346003
0.29887698684459124,0.014182570699901214,1.4272390183969977e-07,0.806445554855966,0.06236679590459464,0.8310503611206628
0.2993912606727814,0.014266331026340024,1.4480063372564764e-07,0.8074477475164001,0.06095117876676785,0.8373289670834545
0.2999055345009715,0.014351315872436557,1.469939448383003e-07,0.8084425094678307,0.05956769893456079,0.8436994722780911
0.30041980832916165,0.014437481794226065,1.4930877314226562e-07,0.8094216059259768,0.05821562683136454,0.8501586575168005
0.3009340821573518,0.014524786940298753,1.517505230936504e-07,0.8103776883904957,0.05689424944348844,0.8567034186909958
0.3014483559855419,0.014613190965159395,1.5432509738609737e-07,0.8113041993896051,0.055602869944160006,0.8633307607506653
0.30196262981373206,0.01470265494997395,1.5703893368538614e-07,0.8121952882135943,0.05434080732606192,0.8700377921836097
0.3024769036419222,0.014793141329938557,1.598990467954752e-07,0.8130457362742826,0.05310739604221181,0.8768217199436026
0.30299117747011234,0.01488461382759123,1.6291307680288608e-07,0.8138508909128495,0.05190198565499563,0.8836798447821167
0.3035054512983025,0.014977037391462335,1.6608934386245225e-07,0.8146066066288716,0.050723940493169965,0.8906095569432739
0.3040197251264926,0.015070378139526826,1.6943691041906606e-07,0.8153091928311749,0.04957263931665215,0.8976083321861152
0.30453399895468275,0.015164603306979267,1.7296565181151116e-07,0.8159553673239254,0.048447474988921616,0.9046737281021302
0.3050482727828729,0.015259681197905307,1.7668633638057394e-07,0.8165422148567332,0.04734785415686029,0.9118033806993863
0.305562546611063,0.015355581140468996,1.806107164103893e-07,0.8170671501211457,0.04627319693786274,0.9189950012277834
0.30607682043925316,0.015452273445275784,1.847516314766064e-07,0.8175278846976659,0.045222936614051704,0.9262463732224069
0.3065910942674433,0.015549729366608141,1.8912312606633872e-07,0.8179223974732435,0.04419651933343792,0.9335553497446571
0.30710536809563344,0.015647921066261027,1.9374058368382972e-07,0.8182489081353871,0.04319340381786687,0.9409198508026909
0.3076196419238236,0.015746821579734074,1.9862088007641847e-07,0.8185058534051733,0.042213061077598556,0.9483378609346549
0.3081339157520137,0.01584640478456299,2.0378255872475893e-07,0.8186918656831307,0.041254974132370704,0.9558074269400514
0.30864818958020385,0.01594664537059393,2.092460323611609e-07,0.8188057538482336,0.04031863773879801,0.963326655745851
0.309162463408394,0.016047518812024125,2.1503381503818963e-07,0.8188464859500703,0.039403558123964726,0.9708937123954176
0.3096767372365841,0.01614900134105157,2.211707902027349e-07,0.8188131736434392,0.03850925272507043,0.9785068181492523
0.31019101106477426,0.01625106992299321,2.276845213834307e-07,0.8187050581000748,0.037635249934992336,0.9861642486883497
0.3107052848929644,0.016353702232730832,2.3460561352885127e-07,0.8185214971411747,0.03678108885363116,0.9938643324108958
0.31121955872115453,0.016456876631244795,2.41968134021922e-07,0.8182619363114527,0.03594631904490974,1.0016054488126862
0.31173383254934467,0.016560572137375554,2.498101028861757e-07,0.8179258294692614,0.03513050029929815,1.0093860267529198
0.3122481063775348,0.016664768414699896,2.581740749569593e-07,0.8175127862898308,0.034333202401740905,1.01720454275926
0.31276238020572494,0.016769445755279777,2.6710782974444336e-07,0.8170225324408281,0.03355400490486587,1.0250595200012151
0.3132766540339151,0.0168745850595668,2.7666518807322533e-07,0.8164548623768024,0.03279249690735759,1.0329495270106728
0.3137909278621052,0.01698016781883901,2.869069867660057e-07,0.8158096322780057,0.03204827683738034,1.040873176398675
0.31430520169029535,0.01708617609837082,2.9790224842958646e-07,0.8150867536498244,0.031320952240940114,1.0488291236238991
0.3148194755184855,0.017192592521280872,3.097295934097397e-07,0.8142861874682952,0.0306101395750777,1.0568160658092685
0.31533374934667563,0.017299400253004776,3.2247895442317404e-07,0.8134079388593346,0.02991546400578886,1.064832740602801
0.31584802317486577,0.01740658298634807,3.36253672294806e-07,0.8124520522465687,0.02923655921057084,1.0728779250796763
0.3163622970030559,0.017514124927077126,3.511730753464592e-07,0.8114186069176179,0.02857306718549923,1.0809504346826024
0.31687657083124604,0.017622010793841597,3.6737567777876414e-07,0.8103079270795416,0.02792463805674297,1.0890491221977299
