Time [s],Lmtc [m],STIM [ ],Fsee [N],Gamma [ ],Lcerel [ ]
0.0,0.020878409131363736,0.9999997914230914,1.517419665671721,0.08651218597633455,1.3304413197526075
0.0028190411830539336,0.02088046144084908,0.99999965697187,3.314358346460935,0.14643256930290158,1.325458441645941
0.005638082366107867,0.02081599279919006,0.9999994290158389,4.407735940562191,0.2024224555183473,1.3181883806734946
0.0084571235491618,0.02072863971865288,0.9999991383020674,5.025760544972186,0.254739660152259,1.3103931985723312
0.011276164732215734,0.020633790331675,0.9999988129661755,5.434765157848321,0.3036250892951578,1.302497449395107
0.014095205915269669,0.020536703878988365,0.9999984753039838,5.749477222882433,0.3493038486048904,1.2946336040565034
0.016914247098323603,0.020439317635638755,0.9999981413623847,6.015798986786277,0.39198627935578456,1.2868488594940954
0.019733288281377537,0.020342406711570157,0.9999978218648107,6.253596536132709,0.43186892650114017,1.2791599724273144
0.022552329464431472,0.020246291717246855,0.9999975234459824,6.4723568820164425,0.4691354432961901,1.2715713082497957
0.025371370647485406,0.020151097490773328,0.9999972497819415,6.677052164914434,0.5039574366631521,1.264081794869783
0.02819041183053934,0.020056858367835106,0.9999970024929892,6.870516113652532,0.5364952571785284,1.256687916495329
0.031009453013593275,0.019963565002282628,0.9999967818182409,7.054489494034489,0.5668987373002777,1.2493851053149767
0.033828494196647206,0.019871186704401706,0.9999965871005555,7.230115601125849,0.5953078812150894,1.2421684213279833
0.03664753537970114,0.01977968267865296,0.9999964171266922,7.398191008322582,0.62185350946681,1.2350328928245455
0.039466576562755075,0.019689007891269813,0.999996270361681,7.559299973405752,0.6466578613226663,1.2279736864146549
0.04228561774580901,0.019599116200367694,0.9999961451078035,7.713890239115072,0.6698351576425408,1.2209861881966213
0.045104658928862944,0.0195099620314957,0.9999960396106546,7.862317767802475,0.6914921268371633,1.2140660375037742
0.04792370011191688,0.01942150125538408,0.9999959521284282,8.00487424735401,0.71172849633294,1.2072091351166014
0.05074274129497081,0.019333691618142,0.9999958809758323,8.141804648481756,0.730637451803601,1.2004116378510008
0.05356178247802475,0.019246492917103,0.9999958245506213,8.273318823983477,0.7483060662813484,1.1936699461428462
0.05638082366107868,0.019159867031823076,0.9999957813483076,8.39959941939498,0.7648157011221207,1.1869806883544118
0.059199864844132616,0.0190737778736242,0.999995749968913,8.52080742928133,0.7802423806704339,1.1803407039042244
0.06201890602718655,0.018988191290940988,0.999995729118436,8.63708620772418,0.7946571423484592,1.173747026393235
0.06483794721024048,0.018903074952559457,0.9999957176068802,8.748564436801972,0.8081263637810386,1.1671968673619655
0.06765698839329441,0.01881839822186022,0.9999957143441208,8.855358375133122,0.8207120684627509,1.160687600999103
0.07047602957634834,0.01873413202978369,0.9999957183344791,8.957573597350297,0.8324722113744155,1.1542167499386564
0.07329507075940227,0.018650248750956534,0.9999957286706023,9.055306365680226,0.8434609458641805,1.1477819721768763
0.0761141119424562,0.018566722085411935,0.9999957445270494,9.148644730143703,0.8537288730220904,1.1413810490803704
0.07893315312551012,0.018483526947106935,0.9999957651538488,9.237669424671672,0.8633232746964682,1.1350118744248598
0.08175219430856405,0.018400639359689816,0.9999957898702,9.322454606940441,0.8722883312251217,1.1286724443885714
0.08457123549161798,0.018318036359518907,0.9999958180584272,9.403068476484371,0.8806653248840193,1.122360848418667
0.0873902766746719,0.018235695905670188,0.9999958491582454,9.479573796485868,0.8884928299903155,1.1160752608892375
0.09020931785772583,0.01815359679652361,0.9999958826613701,9.552028338205245,0.8958068905351622,1.1098139334726889
0.09302835904077976,0.01807171859244487,0.999995918106482,9.620485262415725,0.9026411861643041,1.1035751881513192
0.09584740022383369,0.017990041544050654,0.9999959550745388,9.684993448876366,0.9090271872708237,1.0973574108015431
0.09866644140688761,0.017908546525544952,0.9999959931844218,9.74559778242478,0.9149942999142379,1.091159045289052
0.10148548258994154,0.017827213238476244,0.9999960320888979,9.802246046403118,0.9205700012333142,1.0849785880188454
0.10430452377299547,0.01774601725125373,0.9999960714708696,9.854631217554982,0.9257799659762002,1.0788145828893674
0.1071235649560494,0.017664940472561674,0.9999961110398897,9.902758440009901,0.9306481847305322,1.0726656166048565
0.10994260613910332,0.01758396579690713,0.9999961505289091,9.946661874625853,0.9351970743979955,1.0665303143043938
0.11276164732215725,0.01750307644980502,0.9999961896912309,9.986372248565665,0.9394475814220723,1.0604073354700716
0.11558068850521118,0.017422255942878963,0.9999962282976398,10.021916997859263,0.943419278244345,1.0542953700801578
0.1183997296882651,0.017341488030983093,0.9999962661336749,10.05332039172974,0.947130453433545,1.048193134976178
0.12121877087131903,0.017260756671044406,0.9999963029970159,10.08060364040931,0.9505981959023894,1.042099370415469
0.12403781205437296,0.017180045982342768,0.9999963386949485,10.103784987877548,0.9538384736000303,1.0360128367830344
0.1268568532374269,0.017099340207960268,0.9999963730418722,10.122879790708058,0.9568662070424893,1.029932311438471
0.12967589442048083,0.017018623677143525,0.9999964058568137,10.137900584000976,0.9596953380196894,1.0238565856753405
0.13249493560353476,0.016937880768332473,0.9999964369609039,10.148857135198643,0.9623388937954721,1.0177844617717269
0.13531397678658869,0.016857095872615222,0.999996466174767,10.155756486424993,0.9648090470962375,1.0117147501117516
0.1381330179696426,0.01677625335737345,0.999996493315771,10.158602985849623,0.9671171721644478,1.0056462663586614
0.14095205915269654,0.016695338959441194,0.9999965181968462,10.157476648688956,0.9692738971351116,0.999577828660654
0.14377110033575047,0.016614334825554952,0.9999965406335596,10.152193262054963,0.9712891529765455,0.9935083508556702
0.1465901415188044,0.0165332252362727,0.9999965604404,10.142468085630139,0.973172219221318,0.9874370482297773
0.14940918270185832,0.01645200033482513,0.9999965774186703,10.128296496128455,0.9749317666972278,0.9813631964504324
0.15222822388491225,0.016370650117749155,0.999996591351507,10.109671984002572,0.9765758974545339,0.9752860668296216
0.15504726506796618,0.016289164419647402,0.9999966019993121,10.08658614197413,0.9781121820738314,0.9692049252675993
0.1578663062510201,0.01620753289723013,0.9999966090943864,10.05902864891943,0.9795476945264071,0.9631190311722033
0.16068534743407403,0.016125745012566056,0.9999966123345325,10.026987249049988,0.9808890447475727,0.9570276363493041
0.16350438861712796,0.016043790015461173,0.9999966113753367,9.99044772629394,0.9821424090729244,0.9509299838596825
0.1663234298001819,0.01596165692487566,0.9999966058207388,9.94939387375098,0.9833135586776257,0.944825306837315
0.16914247098323582,0.01587933450927966,0.999996595211379,9.903807458059164,0.984407886149592,0.938712827263697
0.17196151216628974,0.01579681126583774,0.999996579010028,9.853668178476404,0.9854304303188345,0.9325917546924232
0.17478055334934367,0.015714075398300106,0.9999965565831632,9.798953620441834,0.986385899457167,0.9264612849178026
0.1775995945323976,0.015631114793464705,0.999996527177391,9.739639203342602,0.9872786929549157,0.9203205985807542
0.18041863571545153,0.015547916996059154,0.9999964898889054,9.675698122168534,0.9881129215741985,0.9141688597046455
0.18323767689850545,0.015464469181874003,0.9999964436234047,9.607101282690772,0.9888924263717069,0.9080052141530814
0.18605671808155938,0.015380758128958397,0.999996387042742,9.533817229749594,0.9896207963776802,0.9018287880008677
0.1888757592646133,0.015296770186666909,0.9999963184928274,9.455812068180617,0.9903013851119508,0.8956386858085424
0.19169480044766724,0.015212491242319395,0.9999962359045335,9.373049375846824,0.990937326012505,0.8894339887898619
0.19451384163072116,0.015127906685205961,0.9999961366549237,9.285490108174839,0.9915315468470821,0.8832137528605428
0.1973328828137751,0.015043001367633677,0.9999960173688356,9.193092493517051,0.9920867831739746,0.8769770065552706
0.20015192399682902,0.014957759562671287,0.9999958736285145,9.095811918574778,0.9926055909145134,0.8707227487985518
0.20297096517988295,0.014872164918200786,0.999995699537487,8.993600803020694,0.993090358096567,0.8644499465133336
0.20579000636293687,0.014786200406829512,0.9999954870459171,8.886408462348564,0.9935433158252119,0.8581575320494176
0.2086090475459908,0.014699848271151436,0.9999952248711323,8.774180957853156,0.9939665485319584,0.8518444004115215
0.21142808872904473,0.01461308996377045,0.9999948967013468,8.65686093249959,0.9943620035443299,0.8455094062643762
0.21424712991209865,0.014525906081407549,0.9999944780703471,8.53438743127369,0.9947314999971794,0.8391513606893314
0.21706617109515258,0.014438276292307116,0.999993930738354,8.406695704407875,0.9950767370643823,0.8327690276636835
0.2198852122782065,0.014350179256028908,0.9999931901851234,8.273716991646946,0.9953993014078457,0.8263611202300736
0.22270425346126044,0.01426159253455802,0.999992141497214,8.135378285376044,0.9957006734475911,0.819926296318935
0.22552329464431436,0.014172492493479273,0.9999905627546841,7.991602070094956,0.9959822317563729,0.8134631541818326
0.2283423358273683,0.014082854191739231,0.9999878981202486,7.842306035323651,0.9962452535026973,0.8069702273877184
0.23116137701042222,0.013992651258212347,0.9999825302792221,7.6874027565327765,0.9964909003446425,0.8004459793279655
0.23398041819347615,0.01390185575306262,0.9999669767778847,7.5267993417710075,0.9967201574362958,0.7938887971708385
0.23679945937653007,0.013810598154028552,0.0002843327784108536,7.367869404088256,0.996933465465971,0.7872969852176851
0.239618500559584,0.013717650797476789,9.306534411520088e-06,7.148640148564595,0.8790541251339415,0.7806793556313396
0.24243754174263793,0.013623830938200144,3.4012076699392447e-06,6.90005061811818,0.7750846531861542,0.7740504729678498
0.24525658292569186,0.0135290049090229,1.6239174446895973e-06,6.612306540036033,0.6834116647219393,0.7674198844217568
0.24807562410874578,0.013433016304795199,8.681573445882463e-07,6.273269426087755,0.6025812586193281,0.7608018768069589
0.2508946652917997,0.013335718588364152,4.965342200407896e-07,5.869825781926455,0.531311129181394,0.75421730105086
0.25371370647485364,0.013237059808208069,2.988233491770352e-07,5.3914270777419,0.4684705624054116,0.7476959777250163
0.25653274765790757,0.013137248952983557,1.881972435919462e-07,4.836280943850159,0.41306255671796555,0.7412798663110259
0.2593517888409615,0.01303700820635525,1.2390654398166805e-07,4.2186225402339135,0.364208022484505,0.7350272750118036
0.2621708300240154,0.012937853849725844,8.526303882644084e-08,3.5724530309484805,0.3211318412062156,0.7290185594721802
0.26498987120706935,0.012842317598070379,6.120750243795192e-08,2.947124540007834,0.28315057051403747,0.7233644997152779
0.2678089123901233,0.012754128856566013,4.56224628376765e-08,2.3953136741977685,0.2496616021434257,0.7182238022782673
0.2706279535731772,0.012678262909175392,3.514248955794111e-08,1.949840545059792,0.22013360171535074,0.713852857202481
0.27344699475623113,0.012620102244608683,2.7977749574298556e-08,1.592554430860364,0.19409807901092507,0.710662556156652
0.27626603593928506,0.012582935096204114,2.2914094031987878e-08,1.2919436092418553,0.17114195514827252,0.7089679474969083
0.279085077122339,0.012560163162023786,1.894017051891771e-08,0.9851081938312745,0.1509010087720619,0.7085171260458764
0.2819041183053929,0.012541664111863911,1.3734951603853602e-07,0.6947050892836258,0.1330540973630117,0.708517081598975
0.28241841045567234,0.012555758244140533,1.3421124178979076e-07,0.9113775087969187,0.13003363469548937,0.7085170815989745
0.28293270260595177,0.012560118428248144,1.315178535846005e-07,0.9150705703507949,0.1270817447406571,0.7088273104123667
0.2834469947562312,0.012567332537395002,1.2924392152944016e-07,0.9065294434694527,0.12419687072002708,0.7094075392583041
0.2839612869065106,0.012578534434201151,1.2737204524154035e-07,0.8933947549845445,0.12137749119767437,0.7103082813910252
0.28447557905679005,0.012593953632826322,1.2584842987246127e-07,0.8797141768504048,0.11862211927804575,0.7115283786627457
0.2849898712070695,0.012613504627703777,1.2462173004582e-07,0.8668941606130869,0.11592930182097247,0.7130548935172453
0.2855041633573489,0.012637018523462731,1.2364941174823874e-07,0.8553836559336843,0.11329761867538621,0.7148729590369466
0.28601845550762833,0.012664308062641717,1.228972223093272e-07,0.8452750976705411,0.1107256819305759,0.7169679729450916
0.28653274765790776,0.012695187809387396,1.2233770424292283e-07,0.8365207743867858,0.10821213518443139,0.7193261388475638
0.2870470398081872,0.01272948084936914,1.219488137776369e-07,0.8290185952928687,0.10575565282826595,0.7219345771579438
0.2875613319584666,0.012767020837251885,1.2171280336908476e-07,0.8226487819046532,0.10335493934784395,0.7247813066072617
0.28807562410874604,0.0128076522777244,1.2161534939692146e-07,0.817290235230275,0.10100872864025202,0.727855185278516
0.28858991625902547,0.012851230107291436,1.2164487687129698e-07,0.812827825095126,0.09871578334625927,0.731145841121873
0.2891042084093049,0.012897619009636587,1.217920361595746e-07,0.809155404174904,0.09647489419781886,0.7346436028330924
0.2896185005595843,0.01294669265137787,1.2204929577668715e-07,0.8061767459932628,0.09428487938037212,0.7383394350781282
0.29013279270986375,0.012998332921375349,1.2241062381873488e-07,0.8038054695747868,0.09214458390961981,0.7422248793465885
0.2906470848601432,0.013052429210189745,1.2287123743192264e-07,0.8019644846778892,0.0900528790224363,0.746292000611194
0.2911613770104226,0.013108877744403695,1.2342740486384014e-07,0.800585232571108,0.08800866158160497,0.7505333395168806
0.29167566916070203,0.013167580979952197,1.2407628847528765e-07,0.7996068652327484,0.0860108534940639,0.7549418696508703
0.29218996131098146,0.013228447053493957,1.248158199270144e-07,0.7989754363777145,0.08405840114235515,0.7595109593978646
0.2927042534612609,0.013291389288461573,1.2564460086027024e-07,0.7986431403884976,0.0821502748289787,0.7642343378932478
0.2932185456115403,0.013356325751426139,1.265618239602331e-07,0.7985676149534713,0.08028546823335936,0.76910606461985
0.29373283776181974,0.01342317885412855,1.2756721047109743e-07,0.7987113122216024,0.07846299788113978,0.7741205022352948
0.29424712991209917,0.013491874996614176,1.2866096112499272e-07,0.7990409374340346,0.07668190262552056,0.779272292259997
0.2947614220623786,0.013562344247172498,1.298437181292066e-07,0.7995269510308807,0.07494124314037444,0.7845563332971447
0.295275714212658,0.013634520055127804,1.3111653638197256e-07,0.8001431288947239,0.07324010142486725,0.7899677614940593
0.29579000636293745,0.013708338992895424,1.3248086249618844e-07,0.8008661749635848,0.07157758031932467,0.7955019329886154
0.2963042985132169,0.013783740524082058,1.3393852053210183e-07,0.801675380514125,0.06995280303208948,0.8011544081150033
0.2968185906634963,0.013860666794752396,1.3549170359592464e-07,0.8025523247418821,0.06836491267712064,0.8069209371701339
0.29733288281377573,0.013939062445301159,1.3714297066773529e-07,0.8034806117118468,0.0668130718220892,0.8127974475657773
0.29784717496405516,0.014018874440657522,1.388952481911565e-07,0.8044456392409955,0.06529646204673441,0.8187800322124354
0.2983614671143346,0.014100051916807013,1.4075183609853243e-07,0.8054343957599965,0.06381428351124564,0.8248649389992456
0.298875759264614,0.014182546041846595,1.4271641806596735e-07,0.806435281661376,0.062365754534443915,0.8310485612502607
0.29939005141489344,0.014266309889993514,1.4479307589838236e-07,0.8074379520640046,0.06095011118153975,0.8373274290515162
0.29990434356517287,0.01435129832714966,1.4698630804037663e-07,0.8084331783050108,0.05956660686125063,0.8436982013555977
0.3004186357154523,0.01443746790678346,1.4930105229801123e-07,0.8094127258097435,0.058214511932065297,0.8501576587812187
0.3009329278657317,0.014524776775032815,1.5174271294305533e-07,0.8103692462902213,0.056893113317447286,0.8567026970347933
0.30144722001601115,0.01461318458405727,1.5431719245775032e-07,0.8112961824857372,0.05560171412977534,0.8633303208892994
0.3019615121662906,0.014702652412777606,1.570309282676303e-07,0.8121876838893984,0.05433963330282188,0.8700376386630317
0.30247580431657,0.01479314269423794,1.598909349052336e-07,0.813038532105012,0.05310620523257622,0.8768218571472672
0.30299009646684943,0.014884619148911022,1.6290485215159852e-07,0.8138440746533216,0.051900779426222815,0.8836802769375252
0.30350438861712886,0.014977046723342772,1.6608099981847906e-07,0.8146001661983988,0.05072272015909001,0.8906102881280903
0.3040186807674083,0.015070391533598718,1.6942843996584875e-07,0.8153031162967586,0.04957140613938806,0.8976093663338621
0.3045329729176877,0.015164620813033809,1.729570475006597e-07,0.8159496428862552,0.048446230180559983,0.9046750690074837
0.30504726506796714,0.015259702863958991,1.7667759027892494e-07,0.816536830831188,0.04734659888107263,0.9118050320231315
0.30556155721824657,0.015355607012823961,1.806018200399278e-07,0.8170620949263785,0.046271932311479046,0.9189969665013946
0.306075849368526,0.015452303568576247,1.8474257574593718e-07,0.8175231468379489,0.04522166370858758,0.9262486558523654
0.3065901415188054,0.015549763783892712,1.8911390119210797e-07,0.8179179655237392,0.0441952391765764,0.9335579530164493
0.30710443366908485,0.015647959819011664,1.9373117910026455e-07,0.8182447707329661,0.043192117394896326,0.9409227778845298
0.3076187258193643,0.0157468647079221,1.9861128433075247e-07,0.8185019992341055,0.04221176933280802,0.9483411148810066
0.3081330179696437,0.015846452326691917,2.0377275935578473e-07,0.8186882834629239,0.04125367797040346,0.9558110106949144
0.30864731011992314,0.015946697363739232,2.0923601575757355e-07,0.8188024323200704,0.04031733802596513,0.9633305721458127
0.30916160227020256,0.016047575291871025,2.1502356627287491e-07,0.8188434138802989,0.03940225568951921,0.9708979641724832
0.309675894420482,0.016149062341931152,2.2116029283804445e-07,0.8188103398039012,0.038507948362443284,0.9785114079336587
0.3101901865707614,0.016251135477915596,2.276737572412639e-07,0.8187024512659284,0.037633944402991726,0.9861691790110756
0.31070447872104084,0.01635377237341659,2.3459456241810167e-07,0.8185191060782535,0.0367797828776054,0.9938696057060916
0.31121877087132027,0.016456951388147716,2.4195677340913885e-07,0.8182597496739817,0.03594501331787546,1.0016110674198897
0.3117330630215997,0.01656065153970387,2.4979840750165184e-07,0.8179238359137883,0.03512919548303442,1.0093919929181103
0.3122473551718791,0.016664852490458994,2.581620163353753e-07,0.8175109745521253,0.034331899127850285,1.0172108586377067
0.31276164732215855,0.016769534531298123,2.6709537566374143e-07,0.8170208912427789,0.033552703775803494,1.0250661876598839
0.313275939472438,0.016874678561521247,2.766523018720812e-07,0.8164533804200241,0.032791198497428994,1.0329565484301695
0.3137902316227174,0.01698026607127914,2.868936265115041e-07,0.8158082982504562,0.032046981693709016,1.040880553475056
0.31430452377299684,0.017086279124742792,2.9788836589648747e-07,0.815085556218719,0.031319660884405576,1.048836858170508
0.31481881592327626,0.01719270034395012,3.097151328212372e-07,0.8142851152857344,0.03060885250122504,1.0568241595584278
0.3153331080735557,0.017299512893278662,3.224638508877678e-07,0.8134069805647446,0.02991418168571041,1.0648411952075147
0.3158474002238351,0.01740670046449802,3.362378498527321e-07,0.8124511964663922,0.029235282091760923,1.0728867421153079
0.31636169237411454,0.017514247262360227,3.511564445107378e-07,0.8114178422692817,0.028571795692682554,1.0809596156484915
0.31687598452439397,0.017622138005978293,3.6735813241607256e-07,0.8103072647151177,0.027923372592677635,1.089058668518798
