Time [s],Lmtc [m],STIM [ ],Fsee [N],Gamma [ ],Lcerel [ ]
0.0,0.018686246843483915,0.9999998853987703,2.3475646331598314,0.11258742769422453,1.1633705464907513
0.0010921512859178007,0.018696825854459947,0.9999998722296989,3.1728811419295706,0.1356088874852354,1.1619907418958813
0.0021843025718356014,0.018692440621602413,0.9999998522889965,3.926098170609944,0.15803311888546268,1.1599150622001715
0.003276453857753402,0.01867782572588468,0.9999998263956459,4.5813921403847795,0.17987561515666278,1.1574314781771384
0.004368605143671203,0.018655762561369037,0.9999997950893351,5.127986908332559,0.2011514676520486,1.154693611592867
0.005460756429589004,0.0186282526439566,0.9999997588515582,5.572887732496216,0.22187537623544812,1.151790561992259
0.006552907715506805,0.01859678288578098,0.999999718136781,5.931878486291302,0.24206165943590396,1.1487766815611975
0.007645059001424606,0.018562436815197376,0.9999996733767106,6.222123047951752,0.26172426433964685,1.1456864190340426
0.008737210287342407,0.01852599237151022,0.9999996249763314,6.458791810863637,0.28087677622556145,1.142542374196657
0.009829361573260208,0.01848800527152221,0.999999573308531,6.654132789498298,0.2995324279505828,1.139359840491698
0.01092151285917801,0.018448873418820837,0.9999995187098283,6.817614143466879,0.31770410909147573,1.1361494538932853
0.01201366414509581,0.018408883721098362,0.9999994614777628,6.956409103630848,0.33540437484934515,1.1329187888907069
0.013105815431013612,0.018368245049107827,0.9999994018697808,7.075911761091347,0.352645454723076,1.129673350671103
0.014197966716931413,0.018327111116231535,0.9999993401032529,7.180177294412424,0.36943926095773516,1.1264172102025483
0.015290118002849214,0.018285596310304884,0.9999992763562465,7.2722662863706855,0.3857973967738044,1.123153421785599
0.016382269288767015,0.018243786684687065,0.999999210768733,7.354503311655959,0.4017311643829484,1.1198843043713873
0.017474420574684815,0.01820174764321149,0.9999991434439771,7.428667493058048,0.41725157279586644,1.1166116353463447
0.018566571860602614,0.018159529363787733,0.9999990744499168,7.496131871929276,0.43236934542762756,1.1133367867340986
0.019658723146520413,0.018117170666415827,0.9999990038203898,7.557965236705092,0.44709492750574303,1.1100608226904711
0.020750874432438213,0.01807470180231576,0.9999989315560983,7.615006729650995,0.4614384932860872,1.1067845704602373
0.021843025718356012,0.01803214648759122,0.9999988576252293,7.667920786398507,0.4754099530816469,1.103508672805981
0.02293517700427381,0.01798952340242265,0.9999987819636587,7.717237852570969,0.489018960108946,1.1002336272846203
0.02402732829019161,0.017946847308118824,0.9999987044746772,7.763384776241493,0.5022749171568622,1.096959816043727
0.02511947957610941,0.017904129888035948,0.9999986250281736,7.806707665603811,0.5151869830824355,1.0936875286876535
0.02621163086202721,0.017861380386878224,0.9999985434591998,7.847489212248683,0.5277640791381368,1.0904169800113057
0.02730378214794501,0.017818605724528033,0.9999984595658346,7.885943728794713,0.5400148951349575,1.0871483238871058
0.02839593343386281,0.017775809587451206,0.9999983731062343,7.922164764535893,0.5519478954455572,1.0838816642363813
0.029488084719780608,0.017732996144977208,0.9999982837947359,7.956298011264654,0.5635713248516049,1.0806170637680625
0.030580236005698407,0.017690168836155488,0.9999981912968322,7.988478148749279,0.5748932142393195,1.0773545509910833
0.03167238729161621,0.017647330244771366,0.999998095222791,8.018818742842202,0.5859213861471302,1.0740941258800374
0.03276453857753401,0.01760448224716066,0.9999979951196197,8.047416072594896,0.5966634601692488,1.0708357644813329
0.03385668986345181,0.017561626130992596,0.9999978904609802,8.074352177890443,0.6071268582188556,1.0675794226793025
0.034948841149369615,0.017518762691308965,0.9999977806345407,8.09969730120197,0.6173188096544834,1.064325039291327
0.03604099243528742,0.017475892308618558,0.9999976649260751,8.1235118553941,0.6272463562730843,1.0610725386233348
0.03713314372120522,0.01743301501273632,0.9999975424993925,8.145848018466337,0.6369163571731528,1.0578218325884596
0.038225295007123024,0.01739013053522485,0.9999974123708525,8.166751032907005,0.646335493491166,1.0545728224699058
0.03931744629304083,0.017347238352666466,0.9999972733767707,8.186260269813884,0.6555102730144924,1.0513254003923551
0.04040959757895863,0.01730433772251431,0.9999971241313638,8.204410104653538,0.6644470346737822,1.0480794505532687
0.04150174886487643,0.017261427712903836,0.9999969629719463,8.221230641390775,0.6731519529177276,1.0448348502553837
0.042593900150794235,0.017218507227521853,0.9999967878866997,8.236748313933589,0.6816310419729061,1.0415914707737486
0.04368605143671204,0.017175575026409772,0.9999965964182537,8.250986387825295,0.689890159991245,1.0383491780843972
0.04477820272262984,0.017132629743405323,0.9999963855331373,8.263965380445324,0.6979350130873867,1.0351078334767745
0.045870354008547644,0.017089669900791353,0.9999961514421816,8.275703414332805,0.705771159267929,1.0318672940680624
0.04696250529446545,0.01704669392161312,0.9999958893489992,8.286216515384556,0.7134040122540759,1.0286274132343451
0.04805465658038325,0.01700370014004002,0.9999955930905928,8.295518865420378,0.7208388451985922,1.0253880409709715
0.04914680786630105,0.01696068681007976,0.9999952546120212,8.303623016817609,0.7280807942970093,1.0221490241923818
0.050238959152218855,0.016917652112897957,0.9999948631783365,8.310540075490588,0.7351348622915239,1.018910206979947
0.05133111043813666,0.016874594162951992,0.9999944041566161,8.316279857348437,0.7420059218635479,1.0156714307849557
0.05242326172405446,0.01683151101311211,0.9999938570671759,8.32085102244607,0.748698718906654,1.012432534592754
0.053515413009972264,0.016788400658913304,0.9999931923355759,8.324261190300682,0.7552178756640613,1.0091933550530554
0.05460756429589007,0.016745261042057705,0.9999923656086643,8.326517039240946,0.7615678937004632,1.0059537265806717
0.05569971558180787,0.016702090049353188,0.9999913071988008,8.327624197951389,0.7677531566493091,1.0027134814302308
0.05679186686772567,0.016658886186049736,0.9999899009794141,8.327620688164034,0.7737779326149793,0.9994724496398383
0.057884018153643475,0.016615645749230412,0.9999879380036346,8.326423083746306,0.7796463759651465,0.9962304795645944
0.05897616943956128,0.01657236573561246,0.9999850005543723,8.323951704788238,0.7853625278734208,0.9929874667865096
0.06006832072547908,0.0165290448818551,0.9999801144403975,8.320209618857074,0.7909303138399433,0.9897433127513747
0.061160472011396884,0.01648568188577845,0.9999703595183208,8.315199376810783,0.7963535322561786,0.986497917210978
0.06225262329731469,0.016442275407703474,0.9999411638387086,8.308923043532712,0.8016358072205592,0.9832511782765234
0.06334477458323248,0.016398825020266412,0.9655940351620543,8.301429218219507,0.806780290789204,0.9800029924718945
0.06443692586915029,0.01635536950149071,2.9816134379874955e-05,8.29469175166829,0.8109002827064904,0.9767532810523953
0.06552907715506809,0.016311464624177853,1.325509205472091e-05,8.265898343625032,0.772305569436899,0.9735033114395683
0.06662122844098589,0.01626748097853902,7.754985724564197e-06,8.232473277213519,0.7355470694134897,0.970254550689837
0.0677133797269037,0.016223410112540557,5.080792901157263e-06,8.193848365109215,0.7005379104341602,0.9670072741450981
0.0688055310128215,0.016179242617756735,3.5407576622300393e-06,8.14937309501682,0.6671949632127638,0.9637618270124204
0.0698976822987393,0.01613496807557576,2.564955603396095e-06,8.098307645048084,0.6354389746649292,0.9605186363634299
0.0709898335846571,0.016090575033516474,1.9079218384522663e-06,8.039817168317281,0.605194436807127,0.9572782250829168
0.0720819848705749,0.016046051032606527,1.4467284719352725e-06,7.972968436430039,0.5763894239434606,0.95404122806538
0.07317413615649271,0.016001382711949768,1.1131597018442621e-06,7.896730186626417,0.5489554279910542,0.9508084109869976
0.07426628744241051,0.0159565560243531,8.664402506658295e-07,7.809978867321109,0.5228271984152552,0.9475806920166588
0.07535843872832831,0.015911556605724755,6.807915375196906e-07,7.711511831306874,0.49794258848543604,0.9443591668674023
0.07645059001424612,0.01586637035008828,5.391910749450325e-07,7.6000703166733485,0.4742424082563102,0.941145137626869
0.07754274130016392,0.015820984250173087,4.3000389541390716e-07,7.474374682450373,0.45167028424989847,0.937940145839997
0.07863489258608172,0.01577538756858434,3.4505367419817476e-07,7.333174189642728,0.43017252565591013,0.9347460103457533
0.07972704387199953,0.01572957340361081,2.784633761598946e-07,7.175312965416132,0.40969799680880936,0.9315648703875171
0.08081919515791733,0.015683540703136788,2.2592961806000694e-07,6.9998124760036715,0.3901979956794377,0.9283992345168705
0.08191134644383513,0.015637296755937422,1.8425263955222513e-07,6.8059687214834295,0.3716261381155606,0.925252035783424
0.08300349772975293,0.015590860148620173,1.5102277353669435e-07,6.593459435645217,0.35393824756987197,0.9221266936363911
0.08409564901567074,0.01554426411768952,1.244059488780098e-07,6.362453036879317,0.33709225006171845,0.9190271828424191
0.08518780030158854,0.015497560153081708,1.0299369186643701e-07,6.1137074648087895,0.32104807412814274,0.91595810953738
0.08627995158750634,0.015450821631924511,8.569621225274242e-08,5.848644242646922,0.30576755552984397,0.9129247942848419
0.08737210287342415,0.015404147197014832,7.166491949435708e-08,5.569382278809782,0.29121434648777944,0.9099333617790112
0.08846425415934195,0.015357663569330203,6.023544216342688e-08,5.278718200943414,0.2773538292361664,0.9069908368345461
0.08955640544525975,0.015311527529643047,5.088518109151136e-08,4.980046070192856,0.26415303368740817,0.9041052471569055
0.09064855673117755,0.015265926954000014,4.320132514163008e-08,4.677218780572644,0.2515805590139224,0.9012857364548614
0.09174070801709536,0.01522108106357296,3.685651270196947e-08,4.374364307887706,0.23960649896093478,0.8985426993343291
0.09283285930301316,0.015177240433075544,3.1590184334652566e-08,4.075678230025992,0.22820237071301844,0.8958879657574502
0.09392501058893096,0.01513468767626242,2.719429519228265e-08,3.785214082239904,0.21734104714550104,0.893335089544087
0.09501716187484877,0.015093739790543691,2.350251231691146e-08,3.506680887382474,0.2069966922998384,0.8908998232599393
0.09610931316076657,0.015054752349181268,2.038229972117064e-08,3.243235774776057,0.1971446999296658,0.8886008523570722
0.09720146444668437,0.015018123384575846,1.772930563918154e-08,2.9972467524661552,0.18776163497151316,0.8864607282606917
0.09829361573260217,0.01498429059138498,1.5463134902929797e-08,2.7700283459483304,0.1788251778010817,0.8845065690694007
0.09938576701851998,0.014953710720929334,1.3523085899390701e-08,2.561643011938781,0.1703140711425686,0.8827694837355708
0.10047791830443778,0.014926809293061082,1.1862460060608604e-08,2.3709653284529555,0.1622080695047569,0.8812812308171832
0.10157006959035558,0.014903899086160261,1.0441511528669092e-08,2.1961611355214257,0.1544878910235374,0.8800673408495441
0.10266222087627339,0.014885089740746269,9.22148496304792e-09,2.0354250948103876,0.1471351715962564,0.8791385124299211
0.10375437216219119,0.014870233834511836,8.162779572834526e-09,1.8875142098958284,0.14013242119885932,0.8784849095096502
0.10484652344810899,0.014858947588695659,7.22750994385969e-09,1.7517645846430858,0.1334629822821284,0.8780773745029153
0.1059386747340268,0.01485069908019528,6.383487337475439e-09,1.6277374914286615,0.12711099014826738,0.8778749341200398
0.1070308260199446,0.014841811431612489,5.600263631893865e-09,1.4498751252701052,0.12106133521363999,0.8778340187067251
0.1081229773058624,0.014832665921431759,4.85773157169524e-09,1.266712479038987,0.11529962706750918,0.8778339999685878
0.1092151285917802,0.014824096457000816,5.5313504964928143e-08,1.1063043925016038,0.10981216024189054,0.877833991768519
0.10945631063919574,0.014837530659045726,5.4636003015041675e-08,1.36260722554082,0.10863600477220828,0.8778339917685184
0.10969749268661128,0.014838816139278784,5.3994420842173124e-08,1.3670926332400273,0.10747244779408392,0.8779136744422039
0.10993867473402681,0.014840644131536022,5.3377798737023225e-08,1.3756931430725372,0.10632135435798717,0.8780187638952826
0.11017985678144235,0.014843074594592835,5.2796437263345265e-08,1.3858346501433179,0.10518259095979443,0.8781634364385369
0.11042103882885788,0.014846150986120417,5.226312874955034e-08,1.3924195213097257,0.10405602552553443,0.8783698438950923
0.11066222087627342,0.014850069509534453,5.178788819321686e-08,1.3927349907669653,0.10294152739609572,0.8786626346140386
0.11090340292368896,0.014855113575293613,5.137452610859088e-08,1.3880416152144859,0.10183896731204099,0.8790583923133355
0.1111445849711045,0.014861477414100223,5.102213598227735e-08,1.3804143933838844,0.10074821739854865,0.8795640738106552
0.11138576701852003,0.014869252747703052,5.0727767316559974e-08,1.3713056697045483,0.09966915115053027,0.8801812381608477
0.11162694906593557,0.014878470666410445,5.0487925058931736e-08,1.3615731480014839,0.09860164341793685,0.880909066140364
0.1118681311133511,0.014889131136568682,5.029917801882381e-08,1.3517090991254792,0.09754557039123837,0.88174573404276
0.11210931316076664,0.014901218400685489,5.015837644513744e-08,1.3419969140692463,0.09650080958706535,0.8826889992809924
0.11235049520818217,0.014914708720088248,5.0062715610092416e-08,1.3325997986788973,0.0954672398340066,0.8837364594572974
0.11259167725559771,0.014929574366593139,5.000973955226223e-08,1.3236100179602852,0.09444474125855967,0.8848856733708543
0.11283285930301325,0.014945785759621764,4.999732232608497e-08,1.3150768192644855,0.09343319527123212,0.8861342201195179
0.11307404135042878,0.014963312651278546,5.0023642023496936e-08,1.3070227687690392,0.092432484552791,0.8874797286662538
0.11331522339784432,0.014982124801367524,5.008715392618731e-08,1.2994536172051572,0.09144249304065988,0.8889198925124457
0.11355640544525986,0.015002192367856729,5.01865653916856e-08,1.2923644324045664,0.09046310591546067,0.8904524765090549
0.11379758749267539,0.015023486132809634,5.032081343903002e-08,1.2857435077000006,0.08949420958770013,0.8920753193674944
0.11403876954009093,0.015045977630242761,5.0489045276175014e-08,1.2795749051971133,0.08853569168459789,0.8937863337606883
0.11427995158750646,0.015069639214056322,5.069060169804108e-08,1.2738401384423583,0.08758744103705599,0.8955835050585237
0.114521133634922,0.015094444088645412,5.092500316022261e-08,1.2685192995636667,0.08664934766676755,0.8974648892941612
0.11476231568233754,0.015120366315972794,5.1191938297890826e-08,1.2635918203301457,0.08572130277346342,0.8994286107114282
0.11500349772975307,0.015147380807712472,5.149125466480053e-08,1.2590369876361949,0.08480319872229543,0.9014728591034056
0.11524467977716861,0.015175463307956988,5.182295149068431e-08,1.2548342917374569,0.08389492903135432,0.9035958870701948
0.11548586182458415,0.015204590370056115,5.2187174285687595e-08,1.2509636591447608,0.0829963883593217,0.9057960072744573
0.11572704387199968,0.015234739329937646,5.2584211152651464e-08,1.2474056051713587,0.08210747249325427,0.9080715897429316
0.11596822591941522,0.015265888277476472,5.301449069968998e-08,1.2441413300909832,0.08122807833649834,0.9104210592430942
0.11620940796683076,0.015298016026963126,5.347858147579881e-08,1.2411527755298066,0.08035810389673417,0.9128428927520195
0.11645059001424629,0.015331102087379343,5.397719288108617e-08,1.238422652762929,0.07949744827414837,0.9153356170266895
0.11669177206166183,0.0153651266329562,5.451117753092825e-08,1.2359344511920773,0.07864601164973291,0.917897806279966
0.11693295410907736,0.015400070474331097,5.508153508040732e-08,1.2336724329243298,0.07780369527370952,0.920528079963126
0.1171741361564929,0.015435915030510509,5.568941754238838e-08,1.2316216177155508,0.076970401454078,0.9232251006537673
0.11741531820390844,0.015472642301768648,5.633613616020143e-08,1.2297677613653768,0.07614603354528761,0.9259875720465042
0.11765650025132397,0.0155102348435588,5.7023169924852066e-08,1.2280973298069513,0.07533049593702926,0.9288142370430411
0.11789768229873951,0.015548675741476675,5.7752175857798074e-08,1.226597470523891,0.07452369404314856,0.9317038759377154
0.11813886434615505,0.015587948587288498,5.852500121451184e-08,1.225255982482398,0.0737255342906772,0.934655304694321
0.11838004639357058,0.01562803745601845,5.934369780233604e-08,1.2240612854400348,0.07293592410898231,0.9376673733099323
0.11862122844098612,0.015668926884077117,6.021053864975073e-08,1.2230023892522177,0.07215477191903183,0.940738964261437
0.11886241048840165,0.01571060184840407,6.112803731454402e-08,1.222068863619485,0.07138198712277548,0.943868991030563
0.11910359253581719,0.01575304774659179,6.209897017725636e-08,1.2212508085863607,0.07061748009263927,0.9470563967032907
0.11934477458323273,0.01579625037795483,6.312640213577527e-08,1.2205388260042527,0.06986116216113314,0.9503001526397098
0.11958595663064826,0.01584019592550575,6.421371619971485e-08,1.2199239920977483,0.06911294561056983,0.9535992572105242
0.1198271386780638,0.015884870938798538,6.536464758249469e-08,1.2193978312191716,0.06837274366289461,0.9569527345965909
0.12006832072547934,0.015930262317600148,6.658332300893387e-08,1.2189522908361086,0.06764047046962386,0.9603596336480638
0.12030950277289487,0.015976357296350895,6.787430610189069e-08,1.2185797177667983,0.06691604110189227,0.9638190267998703
0.12055068482031041,0.016023143429375768,6.92426498896169e-08,1.2182728356567587,0.06619937154060683,0.9673300090404545
0.12079186686772594,0.016070608576809295,7.069395769452485e-08,1.2180247236743182,0.06549037866670705,0.9708916969308532
0.12103304891514148,0.016118740891198288,7.223445393491566e-08,1.217828796391757,0.06478898025152989,0.9745032276713699
0.12127423096255702,0.016167528804747915,7.387106670808275e-08,1.2176787848111394,0.06409509494727902,0.9781637582132398
0.12151541300997255,0.016216961017178202,7.561152444463881e-08,1.2175687184890887,0.06340864227759688,0.9818724644128428
0.12175659505738809,0.016267026484159505,7.74644694543493e-08,1.2174929087116746,0.06272954262823863,0.9856285402261636
0.12199777710480363,0.01631771440629696,7.94395918555924e-08,1.217445932669186,0.062057717237847324,0.9894311969413252
0.12223895915221916,0.016369014218635482,8.154778823709571e-08,1.2174226185801862,0.061393088188829534,0.9932796624471523
0.1224801411996347,0.016420915580646723,8.380135049927205e-08,1.2174180314962895,0.060735578398330145,0.99717318053584
0.12272132324705023,0.016473408365795764,8.621419162913674e-08,1.2174274434374306,0.06008511160930574,1.0011110102366136
0.12296250529446577,0.016526482648881263,8.880211691390551e-08,1.2174462740896252,0.059441612381696415,1.0050924250992321
0.12320368734188131,0.0165801287031116,9.15831526171571e-08,1.2174702036531686,0.05880500608369483,1.009116712527578
0.12344486938929684,0.01663433699163937,9.457794607066305e-08,1.2174951257256372,0.05817521888311223,1.01318317333042
0.12368605143671238,0.016689098158601343,9.781025551341355e-08,1.217517112651332,0.057552177738841345,1.0172911211860929
0.12392723348412792,0.016744403021586834,1.0130755440528533e-07,1.2175324059892132,0.05693581039241622,1.0214398821152773
0.12416841553154345,0.01680024256444666,1.0510178267772033e-07,1.2175374075701533,0.0563260453596682,1.0256287939772242
0.12440959757895899,0.016856607930425652,1.0923028832658368e-07,1.217528671107989,0.05572281192248029,1.0298572059882565
0.12465077962637452,0.01691349041560239,1.1373701805551212e-07,1.2175028943307453,0.05512604012063911,1.034124478261421
0.12489196167379006,0.016970881462620616,1.1867403733034671e-07,1.217456911600331,0.05453566074378741,1.0384299813662323
0.1251331437212056,0.01702877265469813,1.2410349127505848e-07,1.2173876869909408,0.053951605323478785,1.042773095907528
0.12537432576862112,0.017087155709899066,1.3010016310933302e-07,1.2172923077980924,0.053373806125338694,1.0471532121224796
