Time [s],Lmtc [m],STIM [ ],Fsee [N],Gamma [ ],Lcerel [ ]
0.0,0.019930861649684932,0.9999998603084648,0.7917868536431378,0.05727606345490892,1.2623431601211967
0.002197506253765247,0.02000397860241339,0.9999998440814492,2.305637281691207,0.10583851366804839,1.262343148178615
0.004395012507530494,0.020011027326993322,0.9999997806369313,3.89784328939992,0.1518993697064103,1.2588941999000007
0.006592518761295742,0.019974295884856576,0.9999996802609451,4.99392419284101,0.19558749354418917,1.2538664180032983
0.008790025015060989,0.019916748401326095,0.9999995518662553,5.678610140652582,0.23702510962959752,1.2482555627660252
0.010987531268826236,0.019849460103085262,0.9999994036050216,6.124704211304583,0.27632814673243283,1.2424064909342003
0.013185037522591482,0.01977752940356418,0.9999992427762999,6.44171399388195,0.31360656221364014,1.2364586378406572
0.01538254377635673,0.019703338890143265,0.9999990754918305,6.686700469572027,0.34896464958603873,1.2304758699951748
0.017580050030121978,0.019628063630118604,0.9999989066017305,6.88897735036759,0.3825013302144853,1.224490186259865
0.019777556283887224,0.01955231762016045,0.9999987397897618,7.064159719761737,0.41431042998588147,1.2185185587392033
0.02197506253765247,0.019476437617235366,0.9999985777423247,7.220968349270307,0.44448094173201214,1.2125702578978712
0.024172568791417718,0.019400614795978453,0.9999984223331586,7.364508272933011,0.47309727414292274,1.2066503335617402
0.026370075045182965,0.019324959748763186,0.9999982747951562,7.49790812283582,0.5002394878675589,1.20076139516579
0.02856758129894821,0.019249536383285533,0.99999813586794,7.62316669852235,0.5259835194610226,1.1949045890001753
0.03076508755271346,0.019174380528630238,0.9999980059188409,7.741610924564832,0.5504013938032563,1.1890801597881744
0.03296259380647871,0.019099510629949256,0.9999978850392236,7.854154440478425,0.5735614255816521,1.183287787326277
0.035160100060243955,0.01902493402131085,0.999997773119602,7.9614427891973865,0.5955284103996685,1.1775267963881888
0.0373576063140092,0.018950650885729482,0.9999976699073778,8.063949110194686,0.6163638060447516,1.1717962847368706
0.03955511256777445,0.018876656709178135,0.9999975750508427,8.16202825435736,0.6361259044215949,1.1660952109120757
0.041752618821539696,0.018802943903351833,0.9999974881322894,8.255954240066028,0.6548699946308799,1.160422450072771
0.04395012507530494,0.018729502929000476,0.9999974086927377,8.345946458116295,0.6726485176490634,1.154776832638902
0.04614763132907019,0.018656322557907678,0.9999973362500816,8.432160641413198,0.6895112130414295,1.1491571733845887
0.048345137582835436,0.01858339117156969,0.9999972703124775,8.514756304511272,0.7055052581184609,1.1435622641636343
0.05054264383660068,0.01851069646409424,0.9999972103880689,8.593846979232001,0.7206753999245504,1.137990924700785
0.05274015009036593,0.018438225845552332,0.9999971559915901,8.669530856084942,0.7350640804280885,1.1324419849348273
0.054937656344131176,0.01836596662033347,0.9999971066489318,8.741893568687866,0.7487115552629854,1.126914293068909
0.05713516259789642,0.018293906147907765,0.9999970619000744,8.811012449383473,0.7616560063537068,1.1214067203836764
0.05933266885166167,0.01822203175464718,0.9999970213008095,8.876948154028197,0.7739336487388171,1.1159181661280002
0.06153017510542692,0.018150330964118857,0.9999969844234792,8.939760918391237,0.7855788318918178,1.1104475501838866
0.06372768135919217,0.018078791481528293,0.999996950856712,8.999504217300252,0.7966241358226938,1.1049938207383556
0.06592518761295742,0.01800740124664824,0.9999969202056131,9.056227821378128,0.8071004622289762,1.0995559533262993
0.06812269386672266,0.017936148338465612,0.9999968920910928,9.109971956953174,0.8170371209513547,1.0941329517428804
0.07032020012048791,0.017865021049564563,0.9999968661476133,9.160775149082363,0.8264619119756791,1.0887238418618295
0.07251770637425316,0.01779400412139628,0.9999968420220781,9.208476659832083,0.8354012032106775,1.0833276730012231
0.0747152126280184,0.017723082768342936,0.9999968193724502,9.25293004554808,0.8438800042590668,1.077943509837783
0.07691271888178365,0.017652245819635863,0.999996797865648,9.294170853583013,0.8519220363884202,1.072570428685424
0.0791102251355489,0.017581482153341176,0.9999967771754199,9.332222841921105,0.8595497988975294,1.0672075296887185
0.08130773138931414,0.017510780751987635,0.9999967569800041,9.36710805719285,0.8667846320639275,1.0618539262906492
0.08350523764307939,0.017440130758386553,0.9999967369595916,9.398849992905156,0.8736467768486846,1.0565087447655195
0.08570274389684464,0.01736952186557612,0.9999967167934459,9.427492334830843,0.8801554315255021,1.0511711267265316
0.08790025015060988,0.01729894394489186,0.9999966961568465,9.453064488716064,0.8863288053925303,1.0458402502162951
0.09009775640437513,0.01722838346166402,0.9999966747182512,9.475401332324406,0.892184169717177,1.040515316014037
0.09229526265814038,0.01715783219088192,0.9999966521347249,9.494740444725934,0.8977379060564514,1.035195354334571
0.09449276891190563,0.017087279579724203,0.9999966280470218,9.511034792523567,0.9030055520879553,1.0298796269943897
0.09669027516567087,0.017016715615599816,0.9999966020751485,9.524303880703808,0.9080018450797284,1.0245673441651273
0.09888778141943612,0.01694612955525942,0.9999965738120932,9.534519323154202,0.91274076312061,1.0192577310484767
0.10108528767320137,0.016875509340273005,0.9999965428167283,9.541606992772143,0.9172355642263799,1.0139499807971577
0.10328279392696661,0.016804845224098953,0.9999965086051253,9.545671451286129,0.9214988234310625,1.0086432096690021
0.10548030018073186,0.016734125244210495,0.9999964706399285,9.546630047251702,0.9255424679671037,1.0033366342450691
0.1076778064344971,0.016663342308243075,0.9999964283203814,9.544720297411473,0.9293778106327655,0.9980293863971812
0.10987531268826235,0.016592482547793445,0.9999963809769269,9.539625509321024,0.9330155814401543,0.9927208743120308
0.1120728189420276,0.01652153625409154,0.9999963278480146,9.531143581210841,0.936465957632693,0.9874106588739153
0.11427032519579285,0.016450495964652322,0.9999962680509544,9.519246730677231,0.9397385921551048,0.9820982259475567
0.11646783144955809,0.016379355772603733,0.9999962005511387,9.5040113375371,0.9428426406553294,0.9767830333888909
0.11866533770332334,0.016308108616648533,0.9999961241217975,9.485400580896902,0.945786787093903,0.9714646150300513
0.12086284395708859,0.01623674747509017,0.9999960372925899,9.46340687002526,0.9485792680320521,0.9661424690190209
0.12306035021085383,0.01616526525857599,0.999995938280368,9.438025230349957,0.9512278956659903,0.9608160874234841
0.1252578564646191,0.016093654701877902,0.9999958248958242,9.409245369717343,0.9537400796710814,0.955484959434009
0.12745536271838434,0.016021908318667528,0.9999956944152725,9.377052697352235,0.9561228479159409,0.9501485666515214
0.1296528689721496,0.0159500183898706,0.9999955434014287,9.341430425974998,0.958382866102886,0.9448063793614945
0.13185037522591483,0.01587797726908531,0.9999953674476413,9.302376839772819,0.9605264563874196,0.9394578548893266
0.13404788147968008,0.01580577765969186,0.9999951608039561,9.259908768914809,0.9625596150253914,0.9341024532887382
0.13624538773344533,0.015733411553800807,0.9999949158171105,9.213992634865157,0.9644880290918435,0.9287396566189974
0.13844289398721057,0.015660870148501888,0.9999946220661791,9.164575670907613,0.96631709230977,0.9233689186952732
0.14064040024097582,0.01558814510863148,0.9999942649795143,9.111665031218958,0.9680519200189679,0.9179896460948123
0.14283790649474107,0.015515227765733292,0.9999938235319515,9.055243363804008,0.9696973633025527,0.9126012594185346
0.14503541274850631,0.01544210919443122,0.9999932662197982,8.995289957385346,0.9712580222671551,0.9072031689715188
0.14723291900227156,0.015368780096163546,0.9999925435948168,8.931776963243985,0.9727382584316745,0.9017947718611413
0.1494304252560368,0.015295230295038913,0.9999915733577036,8.864648539262557,0.9741422060932635,0.8963754451850962
0.15162793150980206,0.015221450419788892,0.999990207626062,8.793926671739552,0.9754737823399462,0.8909445176409548
0.1538254377635673,0.015147431098385422,0.9999881513271879,8.719614134491405,0.9767366948613488,0.8855013504807636
0.15602294401733255,0.01507316167335075,0.9999847184040472,8.641643000283898,0.9779344451532969,0.880045318355892
0.1582204502710978,0.014998631288218805,0.9999778634133415,8.55998025947594,0.9790703189989175,0.8745757360790256
0.16041795652486304,0.014923828786864808,0.9999575092813877,8.474597687659996,0.9801473275553815,0.8690918955125405
0.1626154627786283,0.014848770610012083,0.6996581544813606,8.38685741828161,0.9811678077721415,0.8635930711296921
0.16481296903239354,0.014773330705438275,1.80844718282609e-05,8.290076214352448,0.954857183696433,0.8580799977578081
0.16701047528615878,0.014697074893893426,7.066615218096633e-06,8.159631549048713,0.8656154215337745,0.8525579358467952
0.16920798153992403,0.014620411882516943,3.6025537154964925e-06,8.012069669721145,0.7847134857080753,0.8470332888951914
0.17140548779368928,0.01454329248028327,2.047667356530009e-06,7.8428567604909505,0.711372612049283,0.8415102058035281
0.17360299404745452,0.01446566058524634,1.2351046428294241e-06,7.646345304927999,0.6448862949266813,0.8359945534919028
0.17580050030121977,0.014387455974598928,7.740862820658488e-07,7.415694151086311,0.5846139522100546,0.8304945555676633
0.17799800655498502,0.014308624359378122,4.990432531864647e-07,7.143179097906709,0.5299748363559813,0.8250215084231767
0.18019551280875026,0.014229142623847602,3.2936381901465734e-07,6.8211659782031,0.480442463100877,0.819590716501082
0.1823930190625155,0.014149058759030678,2.2212411370578213e-07,6.44351478193622,0.43553954776001114,0.8142228818162921
0.18459052531628076,0.014068555070220635,1.5304598134839825e-07,6.007813872007024,0.39483341038030373,0.8089456729077255
0.186788031570046,0.013988038609394566,1.0781139058900345e-07,5.518179860207685,0.3579318085643415,0.8037955981220823
0.18898553782381125,0.013908236629949814,7.772329178846903e-08,4.987039036784898,0.3244791589618696,0.79882048861056
0.1911830440775765,0.013830282565860419,5.738504625693649e-08,4.435318112528931,0.29415311150873374,0.7940820443901928
0.19338055033134174,0.013755763339849198,4.339370379772061e-08,3.889797022717033,0.2666614436328869,0.7896589861122368
0.195578056585107,0.013686729592725589,3.3578096231557713e-08,3.3783901274463255,0.24173924461694285,0.7856513988034886
0.19777556283887224,0.01362567514982491,2.6553919214135942e-08,2.9239044544164376,0.2191463630491248,0.7821889947150366
0.19997306909263748,0.01357534138585276,2.1460872664799773e-08,2.534289621986323,0.19866509280304614,0.779442703197318
0.20217057534640273,0.013538045774770302,1.7744366605556114e-08,2.197051393423047,0.18009807526957722,0.7776020950405995
0.20436808160016798,0.01351443693213806,1.4948261797301148e-08,1.8973335620876581,0.16326639763326425,0.776745547153241
0.20656558785393322,0.01349447699242214,1.260981480620536e-08,1.4651846289241377,0.14800786887130482,0.7767053039689413
0.20876309410769847,0.013476663434169235,1.0496618714658291e-08,1.1178861435465135,0.13417545687404075,0.7767052915148184
0.21096060036146372,0.013461004385999856,8.580930551790501e-09,0.8513326079072226,0.121635871659937,0.7767052847207023
0.21315810661522896,0.013447408335359358,6.8442897773830305e-09,0.6492948866349756,0.11026828100598496,0.7767052796788076
0.2153556128689942,0.013435732828186223,5.269961819721878e-09,0.49760498380518403,0.09996314610164783,0.7767052754594314
0.21755311912275946,0.013425809930463608,3.842776294881329e-09,0.3845261112477226,0.0906211660260696,0.7767052716996096
0.2197506253765247,0.013417463071161775,1.0802196726232453e-07,0.3006787157256515,0.08215232087822587,0.7767052682217258
0.21999479273805417,0.013472714583869285,1.0753122108109175e-07,1.047254715600801,0.08126161523468328,0.7767052682217258
0.22023896009958363,0.013522298661299044,1.0784387967818197e-07,1.0504180688151075,0.08038056791514617,0.7804114556456749
0.2204831274611131,0.013572344391843821,1.081785257718717e-07,1.0535586806208401,0.07950907419869449,0.784152391977569
0.22072729482264256,0.013622847185327257,1.0853563963176617e-07,1.0566751345352503,0.07864703049147181,0.7879277383641631
0.22097146218417202,0.013673802502526268,1.0891572998497543e-07,1.0597660725891969,0.0777943343229427,0.7917371594991093
0.22121562954570148,0.013725205842632822,1.0931933502182003e-07,1.06283000028172,0.07695088433371203,0.7955803235105429
0.22145979690723094,0.013777052777247611,1.0974702488123001e-07,1.0658661899931239,0.07611658026347708,0.7994569006902791
0.2217039642687604,0.013829338907279786,1.1019940264166291e-07,1.06887291238257,0.07529132293910949,0.8033665677478304
0.22194813163028987,0.013882059867381565,1.1067710506673687e-07,1.0718490555182725,0.07447501426286723,0.8073090012909891
0.22219229899181933,0.013935211336668082,1.1118080547572059e-07,1.0747935082644813,0.07366755720073388,0.8112838812440268
0.2224364663533488,0.013988789035027326,1.117112156133526e-07,1.077705178651105,0.07286885577088467,0.8152908904944739
0.22268063371487826,0.01404278872085344,1.1226908773681612e-07,1.0805830059231152,0.07207881503227734,0.8193297146738259
0.22292480107640772,0.014097206189375574,1.1285521690045057e-07,1.083425961278838,0.07129734107336708,0.8234000420307207
0.22316896843793718,0.014152037271165804,1.1347044342607986e-07,1.0862330466813117,0.07052434100094354,0.8275015633256007
0.22341313579946664,0.014207277830736748,1.1411565556903593e-07,1.089003293227678,0.06975972292908922,0.8316339717338773
0.2236573031609961,0.014262923765287898,1.1479179239849319e-07,1.0917357610255054,0.06900339596825726,0.835796962753874
0.22390147052252557,0.014318971003645084,1.1549984691455904e-07,1.0944295394179036,0.06825527021446799,0.839990234127761
0.22414563788405503,0.014375415505024853,1.1624086940899977e-07,1.0970837406522984,0.06751525673862256,0.8442134857766377
0.2243898052455845,0.014432253257866512,1.1701597109324038e-07,1.0996975011063943,0.06678326757593249,0.8484664197090259
0.22463397260711396,0.0144894802789097,1.1782632803490038e-07,1.102269982403784,0.06605921571546378,0.8527487399482465
0.22487813996864342,0.014547092612027792,1.1867318541124591e-07,1.1048003639424067,0.06534301508979466,0.8570601524771265
0.22512230733017288,0.014605086327384224,1.195578621224374e-07,1.1072878498031604,0.06463458056478534,0.8614003651470645
0.22536647469170235,0.014663457520543346,1.2048175580222384e-07,1.1097316624449232,0.06393382792945874,0.8657690876385801
0.2256106420532318,0.014722202311709131,1.214463482554491e-07,1.112131045888462,0.06324067388599122,0.8701660313919962
0.22585480941476127,0.014781316844713795,1.2245321136045925e-07,1.114485257705451,0.06255503603981165,0.8745909095656853
0.22609897677629073,0.014840797286436141,1.2350401349885803e-07,1.1167935787404686,0.06187683288980796,0.8790434369531112
0.2263431441378202,0.014900639825917439,1.246005265574233e-07,1.1190553012712061,0.06120598381864018,0.8835233299663324
0.22658731149934966,0.014960840673607069,1.257446335520629e-07,1.1212697353733143,0.0605424090831582,0.888030306553917
0.22683147886087912,0.01502139606078057,1.2693833696697448e-07,1.1234362074749222,0.0598860298049239,0.8925640861640742
0.22707564622240858,0.015082302238818191,1.2818376786014076e-07,1.125554057091044,0.05923676796083585,0.8971243897047542
0.22731981358393805,0.015143555478483658,1.2948319582268775e-07,1.127622637046904,0.058594546373856,0.9017109394893316
0.2275639809454675,0.015205152069403611,1.3083903990199523e-07,1.1296413157640315,0.057959288703836896,0.9063234591888677
0.22780814830699697,0.015267088319454496,1.3225388058570055e-07,1.1316094732954525,0.05733091943844847,0.9109616738030998
0.22805231566852643,0.015329360554134022,1.337304729625119e-07,1.1335265018594811,0.05670936388420348,0.9156253096117346
0.2282964830300559,0.01539196511582358,1.3527176119895774e-07,1.135391802539271,0.056094548157580214,0.9203140941332613
0.22854065039158536,0.015454898363342124,1.3688089450318803e-07,1.1372047912433816,0.05548639917624175,0.9250277560676601
0.22878481775311482,0.015518156672036414,1.3856124478501595e-07,1.1389649047394832,0.054884844650350546,0.9297660252791552
0.22902898511464428,0.015581736432877327,1.4031642613518668e-07,1.140671578678241,0.054289813073977566,0.9345286328189163
0.22927315247617375,0.015645634051844055,1.421503163761529e-07,1.1423242628373937,0.05370123371660438,0.9393153108170064
0.2295173198377032,0.015709845949543774,1.440670810077104e-07,1.1439224171779943,0.05311903661471807,0.9441257924705334
0.22976148719923267,0.015774368560838588,1.4607119981285974e-07,1.1454655132473388,0.05254315256349734,0.9489598120104716
0.23000565456076213,0.01583919833429814,1.4816749647259929e-07,1.1469530296374222,0.05197351310858897,0.9538171046796312
0.2302498219222916,0.015904331731727346,1.5036117159963968e-07,1.1483844550033102,0.05141005053797403,0.9586974066854059
0.23049398928382106,0.015969765227766605,1.526578396740071e-07,1.149759287332023,0.0508526978739224,0.9636004551732528
0.23073815664535052,0.016035495309705432,1.5506357043015424e-07,1.1510770377233426,0.05030138886503504,0.9685259881978147
0.23098232400687999,0.01610151847705774,1.5758493530976966e-07,1.15233722364283,0.04975605797837296,0.9734737447189908
0.23122649136840945,0.016167831241248046,1.6022905972232283e-07,1.1535393738796431,0.0492166403916722,0.9784434645586851
0.2314706587299389,0.01623443012519473,1.6300368198636288e-07,1.1546830237490566,0.04868307198564351,0.9834348883894941
0.23171482609146837,0.016301311662932826,1.6591721995851086e-07,1.1557677178267758,0.04815528933635634,0.9884477576957288
0.23195899345299784,0.01636847239939741,1.6897884657269096e-07,1.1567930111814004,0.04763322970770624,0.9934818147526051
0.2322031608145273,0.016435908889886525,1.7219857565608532e-07,1.1577584625027988,0.04711683104396444,0.9985368026142557
0.23244732817605676,0.016503617698335922,1.755873593807521e-07,1.158663615230994,0.04660603196240953,1.0036124650611706
0.23269149553758622,0.01657159539643074,1.7915719967021212e-07,1.1595080016070722,0.04610077174603979,1.008708546517385
0.2329356628991157,0.016639838567151618,1.8292127679895035e-07,1.160291207315856,0.045600990336365915,1.013824792054978
0.23317983026064515,0.016708343825391533,1.868940991206997e-07,1.1610132458500788,0.04510662832628322,1.0189609474256116
0.2334239976221746,0.016777107761268034,1.9109166906613894e-07,1.161672886987312,0.04461762695302282,1.024116761576912
0.23366816498370407,0.016846126971379688,1.9553167929069785e-07,1.1622701226138201,0.044133928091180955,1.0292919790118535
0.23391233234523354,0.016915398071666934,2.00233746036794e-07,1.162804581999505,0.04365547424582608,1.0344863471721544
0.234156499706763,0.0169849176875904,2.0521967437423638e-07,1.1632759137318989,0.043182208545683234,1.039699614154965
0.23440066706829246,0.017054682455092493,2.1051377122576442e-07,1.1636837913589346,0.04271407473639517,1.044931528762587
0.23464483442982192,0.017124689021555273,2.1614321369588022e-07,1.16402791039909,0.04225101717386006,1.0501818405868197
0.2348890017913514,0.017194934045908817,2.2213848430071142e-07,1.164307974026236,0.04179298081764515,1.0554503000753297
0.23513316915288085,0.017265414195255527,2.2853388730420994e-07,1.164523635543429,0.041339911224476916,1.0607366585112972
0.2353773365144103,0.017336126142184164,2.353681648247466e-07,1.1646745399809506,0.040891754541807136,1.0660406676439804
0.23562150387593978,0.017407066565555636,2.4268523682076316e-07,1.1647603671680768,0.040448457501455516,1.0713620795738992
0.23586567123746924,0.017478232150992236,2.5053509436367376e-07,1.1647808043900374,0.0400099674133293,1.076700646900455
0.2361098385989987,0.017549619590714174,2.589748841544381e-07,1.1647355481247363,0.039576232159220646,1.0820561227029935
