Time [s],Lmtc [m],STIM [ ],Fsee [N],Gamma [ ],Lcerel [ ]
0.0,0.01993082135055412,0.9999998603052581,0.791779923574346,0.0572761000634788,1.262340170967814
0.0021975266967204153,0.020003940617398117,0.9999998440780741,2.3056858742873683,0.10583898831795563,1.262340159027029
0.004395053393440831,0.02001099213062532,0.9999997806320262,3.8979482286083567,0.15190023717062168,1.2588913276677525
0.0065925800901612455,0.01997426319886155,0.9999996802521401,4.994071528833775,0.19558871209276854,1.2538636783445307
0.008790106786881661,0.01991671705870051,0.999999551851467,5.678738607338127,0.23702664078937657,1.248252976326959
0.010987633483602077,0.01984942999059106,0.9999994035826681,6.124837844602394,0.2763299550622255,1.2424039963953881
0.013185160180322493,0.019777500572828115,0.9999992427449307,6.4418544577510355,0.3136086150939854,1.2364562335841935
0.015382686877042908,0.01970331123876617,0.9999990754500496,6.686839244063891,0.3489669170225413,1.2304735615256868
0.017580213573763322,0.019628037138283018,0.999998906548327,6.88911589455099,0.3825037846539252,1.2244879686218713
0.019777740270483738,0.019552292271620527,0.9999987397238534,7.064297918857125,0.41431304614431036,1.2185164303079925
0.021975266967204154,0.019476413328265295,0.9999985776633324,7.221102796591258,0.444483696434089,1.2125682175205865
0.02417279366392457,0.019400591469240412,0.9999984222407677,7.364637464449337,0.4731001461717811,1.206648375955768
0.026370320360644985,0.019324937295796395,0.9999982746893107,7.498031993497909,0.5002424578245407,1.200759513441382
0.0285678470573654,0.019249514737521987,0.9999981357488319,7.6232861369347065,0.5259865696346723,1.1949027764617777
0.030765373754085817,0.019174359642605252,0.9999980057868896,7.74172694234321,0.550404508046981,1.1890784110562511
0.03296290045080623,0.01909949043596153,0.9999978848950131,7.854266225642675,0.5735645891995134,1.183286098406284
0.035160427147526645,0.01902491446760305,0.9999977729638277,7.961550870067966,0.595531610039781,1.1775251624044456
0.03735795384424706,0.018950631920186374,0.9999976697408398,8.064053548018887,0.6163670295998157,1.1717947015382515
0.039555480540967476,0.018876638282587135,0.9999975748743885,8.162129167901668,0.6361291409361092,1.1660936744930894
0.04175300723768789,0.018802925953333882,0.9999974879467622,8.256050975084706,0.654873234214608,1.1604209566287633
0.04395053393440831,0.018729485300767325,0.9999974084989195,8.346034226177256,0.6726517513963562,1.1547753776701202
0.04614806063112872,0.018656305375375496,0.9999973360487572,8.43225207380236,0.689514432956031,1.1491557470249831
0.04834558732784914,0.018583374394458386,0.9999972701044509,8.514846451468067,0.7055084570434511,1.1435608708074056
0.050543114024569555,0.0185106800748435,0.999997210174039,8.593935678645352,0.720678571477093,1.1379895632167503
0.05274064072128997,0.018438209862446417,0.9999971557721571,8.669619870981752,0.7350672189386669,1.1324406540286787
0.054938167418010386,0.018365951090752692,0.9999971064246128,8.741984854339318,0.7487146557188471,1.1269129933813233
0.0571356941147308,0.018293891089688617,0.9999970616713261,8.811105041322309,0.7616590643462416,1.1214054546657723
0.05933322081145122,0.018222017259480125,0.9999970210680326,8.877045576780288,0.773936660414613,1.115916936081249
0.06153074750817163,0.018150317119571636,0.9999969841870533,8.939863960479727,0.7855817939071593,1.1104463612473863
0.06372827420489205,0.018078778339641877,0.9999969506173545,8.99961129054893,0.7966270453012732,1.1049926791508926
0.06592580090161246,0.01800738875768915,0.9999969199640674,9.056333228174344,0.8071033167226306,1.099554863624059
0.06812332759833287,0.01793613638873382,0.9999968918475918,9.110070754797137,0.8170399184035911,1.0941319124964888
0.07032085429505328,0.017865009424352294,0.9999968659023732,9.160860651274598,0.8264646506877937,1.0887228465216776
0.07251838099177368,0.01779399260684645,0.9999968417754158,9.208546950912778,0.8354038818103514,1.0833267081516338
0.0747159076884941,0.01772307126475099,0.9999968191245704,9.252990464732543,0.8438826216712515,1.0779425602121766
0.0769134343852145,0.01765223418286545,0.9999967976166225,9.294220612957691,0.8519245918083496,1.0725694845166336
0.07911096108193491,0.017581470282169685,0.9999967769251844,9.33226394426781,0.8595522917657179,1.0672065804447333
0.08130848777865532,0.01751076860763523,0.999996756728386,9.367144359338367,0.866787062043029,1.0618529635054552
0.08350601447537573,0.017440118314945935,0.9999967367063421,9.39888329759428,0.8736491438020847,1.05650776389664
0.08570354117209614,0.017369508656411816,0.9999967165383657,9.427499893955895,0.8801577354975285,1.0511701250697418
0.08790106786881655,0.01729892896627911,0.9999966958998722,9.45301111084219,0.8863310465901766,1.0458392023048126
0.09009859456553695,0.017228368645577925,0.9999966744589149,9.475431849549807,0.8921863484932286,1.0405141612982993
0.09229612126225736,0.0171578171466023,0.9999966518722624,9.49477504425073,0.8977400228938986,1.0351941767643775
0.09449364795897777,0.017087263957081038,0.9999966277809055,9.511051741175926,0.9030076075856236,1.0298784310491027
0.09669117465569818,0.01701669858406982,0.9999966018048538,9.524271165027974,0.9080038399390733,1.0245661127555656
0.09888870135241859,0.016946110537572546,0.999996573537035,9.534440774253278,0.912742698133553,1.0192564153773649
0.101086228049139,0.016875489313882063,0.9999965425360584,9.541566306478721,0.9172374402641218,1.0139485359370324
0.10328375474585941,0.016804824378615874,0.9999965083175352,9.545651815156736,0.9215006414337991,1.008641673625473
0.10548128144257982,0.016734105215821426,0.9999964703435943,9.546703226531443,0.9255442289345801,1.0033350284379923
0.10767880813930022,0.016663322722864273,0.999996428013481,9.544800926559526,0.9293795156156144,0.9980278032927227
0.10987633483602063,0.016592462408388218,0.9999963806577092,9.539654890282407,0.9330172315319962,0.9927193220061471
0.11207386153274104,0.01652151537567007,0.9999963275146143,9.53114723946056,0.9364675539629175,0.9874090874613783
0.11427138822946145,0.016450474966297052,0.9999962677011064,9.51927494758057,0.939740135882273,0.9820966108072112
0.11646891492618186,0.016379334420388574,0.9999962001818707,9.504033827084797,0.9428441329611442,0.9767813997762875
0.11866644162290227,0.01630808686927017,0.9999961237297368,9.485418529530396,0.9457882291777082,0.9714629581747446
0.12086396831962268,0.01623672532769589,0.9999960368736858,9.46342254268636,0.9485806611058522,0.9661407853539207
0.12306149501634309,0.016165242685601225,0.9999959378296863,9.43803818468555,0.9512292409499155,0.9608143756630045
0.1252590217130635,0.016093631699363696,0.9999958244072767,9.409256595312918,0.9537413783892793,0.9554832178813217
0.1274565484097839,0.016021884982543606,0.9999956938812873,9.377067724479156,0.95612410129285,0.9501467946287433
0.1296540751065043,0.015949994996072418,0.9999955428124355,9.341460317900692,0.9583840753598659,0.9448045817525055
0.13185160180322472,0.015877954037851274,0.9999953667912549,9.302421899980791,0.9605276227396905,0.9394560476885313
0.13404912849994513,0.015805754231716856,0.9999951600641095,9.25993875386228,0.9625607396792566,0.9341006527951157
0.13624665519666554,0.015733387515726283,0.9999949149725997,9.213995898598887,0.9644891132421567,0.9287378486566408
0.13844418189338595,0.01566084562970644,0.9999946210877692,9.164577063369432,0.9663181371376035,0.9233670773547147
0.14064170859010636,0.015588120102006888,0.9999942638258139,9.111664658635615,0.9680529266893868,0.9179877707039096
0.14283923528682677,0.015515202235387913,0.9999938221427414,9.05523974411977,0.9696983329624186,0.9125993494489668
0.14503676198354717,0.015442083091967544,0.9999932645036953,8.995281993451824,0.9712589560428195,0.9072012224200665
0.14723428868026758,0.015368753477142064,0.9999925414056386,8.931769655301968,0.9727391574262719,0.9017927856424002
0.149431815376988,0.015295203922384664,0.999991570443265,8.86467951077257,0.9741430713830247,0.8963734213959633
0.1516293420737084,0.015221424666815035,0.9999902035127977,8.793986826754967,0.9754746149681549,0.8909424972210813
0.1538268687704288,0.01514740563741888,0.9999881450226691,8.719665304831555,0.9767374958267387,0.8854993648648023
0.15602439546714922,0.015073136427779452,0.9999847074156146,8.64168702503085,0.97793521538375,0.8800433591629573
0.15822192216386963,0.014998606275163097,0.9999778392249703,8.560022383194632,0.9790710592758787,0.8745737968526497
0.16041944886059004,0.014923804035870548,0.9999574155871697,8.474640023612048,0.9801480382086333,0.869089975311598
0.16261697555731044,0.014848746090127861,0.6999064726176678,8.386897562417644,0.9811684862351644,0.8635911712369523
0.16481450225403085,0.014773306564907433,1.8048332347890108e-05,8.290122349685031,0.9548807744709658,0.8580781168928663
0.16701202895075126,0.014697050944065461,7.060744647401189e-06,8.159676053444562,0.8656360138972787,0.8525560712222773
0.16920955564747167,0.0146203882505305,3.6009727382520185e-06,8.012120955526031,0.7847314365743892,0.8470314370387855
0.17140708234419208,0.014543269613317457,2.0471582137521123e-06,7.842932988914631,0.7113882356502466,0.8415083716313346
0.1736046090409125,0.014465638436657111,1.2349307748480998e-06,7.646428172100027,0.6448998695685368,0.8359927612197199
0.1758021357376329,0.014387434394642871,7.740281454635395e-07,7.415774431043885,0.5846257244467995,0.8304928080800975
0.1779996624343533,0.014308604226458417,4.990266130614549e-07,7.143302348127782,0.5299850245351687,0.8250197969141242
0.18019718913107372,0.014229124448845418,3.293617680855274e-07,6.82132617225798,0.480451260493941,0.8195890854623468
0.18239471582779412,0.01414904236969361,2.2212648800190808e-07,6.443678926440661,0.4355471253460265,0.814221370213462
0.18459224252451453,0.014068540767057958,1.5304912120189533e-07,6.007993599582436,0.3948399193260221,0.8089442800163072
0.18678976922123494,0.013988025700312701,1.0781411391132737e-07,5.518334879828236,0.3579373824345775,0.8037943418081819
0.18898729591795535,0.013908225033412044,7.772532141320021e-08,4.98718563051178,0.3244839156894657,0.7988193322775192
0.19118482261467576,0.013830272615363487,5.738645018875202e-08,4.4354719727110155,0.29415715514992363,0.794080979195379
0.19338234931139617,0.013755754787723652,4.339464698209722e-08,3.8899351694147644,0.26666486593104366,0.7896580389618725
0.19557987600811658,0.013686722201127217,3.3578734012453555e-08,3.378509113138404,0.24174212639522002,0.7856505618787226
0.19777740270483699,0.0136256688660508,2.655436375172003e-08,2.9240094471508535,0.21914877545032518,0.7821882554409945
0.1999749294015574,0.013575336283168656,2.1461191274754993e-08,2.5343843317539236,0.19866709839311508,0.779442060850694
0.2021724560982778,0.013538041925032872,1.7744607978472977e-08,2.1971363083986852,0.1800997290193843,0.7776015563068891
0.2043699827949982,0.013514434301050635,1.4948472174618923e-08,1.8974066909839167,0.16326774779178949,0.7767451181523475
0.20656750949171862,0.013494473978348746,1.2609996516235974e-08,1.4652113018442683,0.1480089577419488,0.776704981723838
0.20876503618843903,0.013476660117611408,1.0496761144264537e-08,1.1179039423451156,0.13417632150453662,0.7767049692709195
0.21096256288515944,0.013461000809511329,8.581039605565328e-09,0.8513440164852081,0.12163654445523857,0.7767049624772623
0.21316008958187985,0.013447404542832105,6.844370566854894e-09,0.6493018566031531,0.11026879027250328,0.7767049574356603
0.21535761627860026,0.013435728861377972,5.27001876683665e-09,0.497608971583065,0.09996351653030953,0.7767049532165089
0.21755514297532066,0.013425805827142805,3.842813221726317e-09,0.38452816118041017,0.09062141912088145,0.7767049494568768
0.21975266967204107,0.013417458864328506,1.080222124045162e-07,0.30067955244425915,0.08215247533631155,0.7767049459791615
0.21999683930501002,0.01347270986832648,1.0753146212564464e-07,1.0472473258340325,0.08126175977698173,0.7767049459791612
0.22024100893797896,0.013522293692316738,1.0784413116579879e-07,1.0504102070981778,0.08038070273854013,0.7804111163523215
0.2204851785709479,0.013572339149995253,1.0817878701417179e-07,1.0535503857044584,0.07950919949696299,0.7841520340059325
0.22072934820391685,0.013622841653683585,1.0853591002015812e-07,1.056666434366969,0.07864714645533413,0.7879273603208409
0.2209735178368858,0.013673796665528804,1.089160089445472e-07,1.0597569807077543,0.07779444114010203,0.7917367601551858
0.22121768746985473,0.01372519969551167,1.0931962232199834e-07,1.0628207040291053,0.07695098218889838,0.7955799017112858
0.22146185710282368,0.013777046299554587,1.0974731992999627e-07,1.0658563322943684,0.0761166693384896,0.7994564564089645
0.22170602673579262,0.013829332077723598,1.1019970437187366e-07,1.0688626393038458,0.0752914034128585,0.8033660987649495
0.22195019636876157,0.013882052672518706,1.106774127822815e-07,1.0718384420532738,0.07447508631141533,0.8073085062779845
0.2221943660017305,0.013935203767247524,1.1118111866436407e-07,1.0747825982631969,0.07366762099733681,0.8112833593193313
0.22243853563469945,0.013988781084477368,1.1171153386884864e-07,1.0776940040682674,0.07286891148603133,0.8152903410283577
0.2226827052676684,0.014042780384561191,1.1226941072631538e-07,1.0805715918563403,0.07207886283372957,0.8193291372129119
0.22292687490063734,0.014097197464233178,1.1285554434507635e-07,1.0834143282477429,0.07129738112619864,0.8233994362542214
0.22317104453360628,0.014152028155269966,1.1347077508837664e-07,1.0862212122059014,0.07052437346757885,0.8275009290160577
0.22341521416657523,0.014207268323213734,1.1411599124605797e-07,1.0889912732709301,0.0697597479693412,0.8316333087579281
0.22365938379954417,0.014262913866153706,1.1479213191740583e-07,1.0917235699084837,0.06900341373936494,0.8357962710520732
0.2239035534325131,0.014318960713562756,1.1550019012366264e-07,1.0944171879665832,0.0682552808711336,0.8399895137040609
0.22414772306548206,0.014375404825185912,1.1624121617065287e-07,1.0970712392335942,0.06751526043304801,0.8442127366767698
0.224391892698451,0.014432242189978139,1.1701632128415427e-07,1.0996848600910956,0.06678326445785542,0.8484656420175966
0.22463606233141994,0.014489468825088335,1.1782668154310256e-07,1.102257210255672,0.0660592059321931,0.8527479337886907
0.2248802319643889,0.014547080774887321,1.1867354213846223e-07,1.1047874716040758,0.06534299878624561,0.8570593180000757
0.22512440159735783,0.014605074110037182,1.195582219886736e-07,1.1072748470766307,0.06463455788351408,0.8613995025454854
0.22536857123032678,0.014663444926599906,1.204821187460566e-07,1.1097185596539856,0.06393379901069651,0.8657681971407861
0.22561274086329572,0.01472218934518311,1.2144671423244486e-07,1.1121178514027321,0.06324063886767792,0.8701651132648429
0.22585691049626466,0.014781303510120972,1.2245358034672916e-07,1.1144719825856533,0.06255499505762908,0.8745899641027082
0.2261010801292336,0.014840783588688417,1.2350438549195783e-07,1.1167802308325947,0.06187678607721269,0.8790424644910084
0.22634524976220255,0.014900625770346922,1.2460090157527246e-07,1.119041890368309,0.06120593130689561,0.8835223308654233
0.2265894193951715,0.0149608262660203,1.2574501164033688e-07,1.121256271293792,0.06054235100136667,0.8880292812101535
0.22683358902814044,0.015021381307398914,1.2693871819917072e-07,1.1234226989178357,0.05988596628005795,0.8925630350092767
0.22707775866110938,0.015082287146270915,1.2818415233855518e-07,1.125540513135814,0.059236699117769374,0.8971233131999
0.22732192829407832,0.01514354005387918,1.29483583685588e-07,1.1276090678527997,0.05859447233539468,0.901709838127028
0.22756609792704727,0.015205136320302657,1.3083943132772753e-07,1.1296277304484068,0.05795920959074851,0.9063223335000574
0.2278102675600162,0.015267072253861053,1.3225427579498217e-07,1.1315958812807918,0.05733083536949259,0.9109605243508359
0.22805443719298515,0.015329344180541583,1.3373087222603808e-07,1.1335129132275719,0.056709274976160795,0.9156241369931974
0.2282986068259541,0.015391948443446936,1.3527216485637343e-07,1.135378231261366,0.0560944545252815,0.9203128989839244
0.22854277645892304,0.015454881402263409,1.368813029851433e-07,1.1371912520579819,0.0554863009325965,0.9250265390850642
0.22878694609189199,0.015518139432748261,1.385616585992612e-07,1.1389514036352937,0.05488474190637504,0.9297647872275437
0.22903111572486093,0.015581718926235584,1.4031684585816036e-07,1.1406581250209957,0.054289705938822694,0.9345273744760341
0.22927528535782987,0.015645616289159735,1.4215074267180807e-07,1.142310865947561,0.05370112229758307,0.9393140329950039
0.22951945499079882,0.015709827942595705,1.4406751463838904e-07,1.1439090865727954,0.05311892101733231,0.9441244960159222
0.22976362462376776,0.015774350321815712,1.460716416475649e-07,1.1454522572245045,0.052543032891464725,0.9489584978055647
0.2300077942567367,0.01583917987586128,1.4816794750140708e-07,1.1469398581678707,0.051973389463869195,0.9538157736353737
0.23025196388970565,0.01590431306713038,1.5036163295929692e-07,1.1483713793942145,0.05140992302079463,0.9586960597518491
0.2304961335226746,0.015969746370978845,1.526583126768332e-07,1.1497463204299192,0.0508525665828044,0.963599093347915
0.23074030315564353,0.016035476275335723,1.5506405658402764e-07,1.1510641901643408,0.05030125389681826,0.9685246125352418
0.23098447278861248,0.01610149928033198,1.5758543633711502e-07,1.152324506695615,0.04975591942824081,0.9734723563174887
0.23122864242158142,0.01616781189794207,1.6022957758406074e-07,1.153526797193324,0.04921649835317621,0.9784420645644308
0.23147281205455036,0.01623441065163802,1.630042189098537e-07,1.1546705977770857,0.04868292655072751,0.9834334779869534
0.2317169816875193,0.016301292076055556,1.6591777847833558e-07,1.155755453410089,0.048155140595380466,0.988446338112877
0.23196115132048825,0.016368452716671963,1.689794295681232e-07,1.1567809178067823,0.04763307774947034,0.9934803872635986
0.2322053209534572,0.01643588912939932,1.7219918640115772e-07,1.1577465515793084,0.04711667595573133,0.9985353685315211
0.23244949058642614,0.016503597878740655,1.7558800159975235e-07,1.1586518962504984,0.04660587382992789,1.003611025747465
0.23269366021939508,0.0165715755369249,1.7915787759459648e-07,1.1594964845163436,0.046100610653566805,1.0087071033744044
0.23293782985236403,0.016639818687556977,1.829219952492781e-07,1.1602799032141502,0.045600826366689474,1.0138233465265654
0.23318199948533297,0.01670832392374971,1.8689486139407057e-07,1.161001750061102,0.045106461560743896,1.0189595010051922
0.2334261691183019,0.016777087847747375,1.910924789062849e-07,1.161661631208494,0.04461745747153552,1.0241153132806187
0.23367033875127086,0.016846107070678063,1.9553254365653952e-07,1.1622591612308895,0.04413375597225625,1.029290530474121
0.2339145083842398,0.01691537821231548,2.002346734056246e-07,1.1627939631239261,0.04365529956659135,1.0344849003404417
0.23415867801720874,0.016984897900850105,2.052206748655117e-07,1.1632656683103015,0.04318203138190345,1.0396981712509767
0.2344028476501777,0.017054662772669517,2.1051485655845595e-07,1.1636739166534142,0.042713895162493416,1.0449300921776123
0.23464701728314663,0.017124669472147608,2.1614439690457384e-07,1.164018356478241,0.04225083526293762,1.0501804126771992
0.23489118691611557,0.01719491465144268,2.2213977925469478e-07,1.164298644598984,0.041792796641501574,1.0554488828766582
0.23513535654908452,0.01726539497030425,2.285353085148236e-07,1.1645144463530643,0.04133972485362963,1.0607352534587093
0.23537952618205346,0.01733610709588835,2.353697277886942e-07,1.1646654356411108,0.040891566045510794,1.0660392756482118
0.2356236958150224,0.01740704770258127,2.4268695837920886e-07,1.164751294972491,0.04044826694772113,1.0713607011991102
0.23586786544799135,0.017478213471831677,2.5053699292917107e-07,1.1647717155161024,0.04000977486894308,1.0766992823819816
0.2361120350809603,0.017549601091990944,2.5897697999146287e-07,1.164726397156015,0.039576037689762596,1.0820547719721776
