Time [s],Lmtc [m],STIM [ ],Fsee [N],Gamma [ ],Lcerel [ ]
0.0,0.022594040499180568,0.999998338644384,1.423566421686199,0.09316175894197437,1.4594810592189205
0.008683968160084378,0.022425324292989768,0.9999936888963024,2.9470437478264624,0.2641924888875729,1.4422559758929994
0.017367936320168757,0.02222426160714816,0.9999881295135913,3.7406100345915263,0.40296569142217525,1.4252760904776
0.026051904480253137,0.022039660548984367,0.9999833557636231,4.399484069681335,0.5155650127162229,1.4100017852419968
0.03473587264033751,0.02186839356035092,0.9999797241859045,4.986599792985224,0.6069270339357146,1.395970812901241
0.04341984080042189,0.021707201557639985,0.9999771669663235,5.522006454918786,0.6810573569274022,1.382859241094969
0.052103808960506266,0.021553852706533684,0.9999755002195028,6.016397449368974,0.7412061082724567,1.3704572047478154
0.06078777712059064,0.02140680537103283,0.9999745311227644,6.476673913578294,0.790010401156072,1.3586225050300909
0.06947174528067503,0.021264953220996356,0.9999740913808212,6.907713461883697,0.8296099489216474,1.3472540981088645
0.0781557134407594,0.021127472780471643,0.9999740441724898,7.313155358219789,0.8617408800478347,1.3362772571691068
0.08683968160084378,0.020993731761664552,0.9999742820421651,7.6958175657179035,0.8878118607912957,1.3256348856557283
0.09552364976092816,0.02086323190499765,0.99997472222584,8.057943217707937,0.9089658605879626,1.3152821743873233
0.10420761792101253,0.020735571923543205,0.9999753017735977,8.401356937648837,0.9261302675260884,1.3051831665234825
0.11289158608109691,0.020610422611784036,0.9999759732516807,8.72756915716198,0.9400575510465251,1.2953084631792255
0.12157555424118129,0.020487509594559694,0.9999767012048681,9.037848498763134,0.9513582547865563,1.2856336399887185
0.13025952240126568,0.02036660104076926,0.9999774593404236,9.333273591239445,0.9605277662570444,1.2761381231809283
0.13894349056135005,0.020247498702406976,0.9999782283268085,9.614771129375901,0.9679680371874702,1.266804372184769
0.14762745872143443,0.02013003124123324,0.9999789940909559,9.883144444428998,0.9740052069663849,1.2576172724267214
0.1563114268815188,0.02001404916685407,0.9999797465094701,10.139095355849468,0.9789039019535992,1.2485636757880485
0.16499539504160318,0.019899420933920976,0.9999804784064171,10.383241158577917,0.9828788376739533,1.239632047029119
0.17367936320168756,0.019786029888818467,0.9999811847874464,10.616128019459685,0.9861042326310401,1.2308121877140707
0.18236333136177194,0.01967377184939634,0.9999818622540787,10.83824167720888,0.9887214465172571,1.222095017782337
0.1910472995218563,0.019562553163577277,0.9999825085352768,11.050016086517546,0.9908451777399149,1.2134724006546027
0.1997312676819407,0.01945228913514726,0.9999831218746198,11.251840473127858,0.9925684921159986,1.2049370016680607
0.20841523584202507,0.019342902734553198,0.9999836990072943,11.444065145331987,0.9939669046090968,1.19648217234575
0.21709920400210944,0.019234323533389965,0.9999842288741999,11.627006321378614,0.9951017015803628,1.1881018549160638
0.22578317216219382,0.01912648681622291,0.9999846819321225,11.800950171605994,0.9960226743172772,1.1797905028658708
0.2344671403222782,0.019019332834260938,0.9999850055352515,11.966156231250809,0.9967704079591805,1.1715430143009562
0.24315110848236257,0.018912806173377563,0.9999851412124056,12.122860303887045,0.9973781786817938,1.163354675619686
0.251835076642447,0.018806855214998582,0.9999850666574047,12.271276938447437,0.9978733902105164,1.1552211135686326
0.26051904480253135,0.018701431673158932,0.9999848448059826,12.411601533896436,0.9982784829722069,1.1471382541914472
0.26920301296261573,0.018596490194845175,0.9999846398568923,12.544012119489663,0.9986114269541321,1.1391022875116257
0.2778869811227001,0.018491988013452244,0.999984647729048,12.668670870134314,0.9988860924232574,1.1311096370068159
0.2865709492827845,0.018387884646796613,0.9999849615826102,12.785725424755352,0.9991127959040234,1.1231569330655558
0.29525491744286886,0.018284141632059107,0.9999855133545992,12.895310065868108,0.9992991292148822,1.1152409897170694
0.30393888560295323,0.01818072229086829,0.9999861553227356,12.997546790692134,0.9994509283143143,1.1073587840352264
0.3126228537630376,0.018077591518887503,0.9999867645413807,13.092546272582618,0.999573103137721,1.0995074377522727
0.321306821923122,0.01797471559573457,0.9999872775720537,13.180408698025754,0.9996701271446287,1.091684200751198
0.32999079008320636,0.017872059565238702,0.9999876754308205,13.261071244610976,0.999746186342528,1.0838864361989269
0.33867475824329074,0.017769583292393525,0.9999879608199272,13.334068844517875,0.9998051293683201,1.0761116071238073
0.3473587264033751,0.017667255626771086,0.999988143874426,13.399430805981511,0.999850368661395,1.0683572642507464
0.3560426945634595,0.017565046949933077,0.9999882362106852,13.45722650506358,0.9998848170461936,1.0606210349122365
0.36472666272354387,0.017462928266708987,0.999988249726092,13.507516563853233,0.9999108805358375,1.0529006128655602
0.37341063088362825,0.01736087109300525,0.9999881975626874,13.550353211886934,0.9999304954335715,1.0451937488647716
0.3820945990437126,0.017258847349839315,0.9999880957382358,13.58578059643875,0.9999451898070496,1.0374982418558338
0.390778567203797,0.017156829262253516,0.9999879643836139,13.613835044726216,0.9999561528189836,1.0298119306811027
0.3994625353638814,0.017054789261921974,0.9999878275941618,13.634545280398605,0.9999643014208784,1.0221326861938098
0.40814650352396575,0.016952699892385233,0.9999877111674149,13.647932596278869,0.9999703389290355,1.0144584036943356
0.41683047168405013,0.01685053371553037,0.9999876384124748,13.654010959407225,0.9999748033128869,1.0067869956082864
0.4255144398441345,0.016748264266075258,0.9999876256246365,13.65285367125748,0.9999781050806416,0.9991163842629218
0.4341984080042189,0.01664586379231248,0.9999876795780064,13.644293849383564,0.9999805560156626,0.9914446859946919
0.44288237616430326,0.016543310729009195,0.999987797802554,13.628130828154285,0.999982390868496,0.9837705284184821
0.45156634432438764,0.01644058765304704,0.9999879710872276,13.604354818565817,0.9999837841005955,0.976092632076108
0.460250312484472,0.016337676857598554,0.9999881870110696,13.57295139508003,0.9999848632824329,0.9684097093825005
0.4689342806445564,0.01623456031290927,0.9999884329163863,13.533901459895478,0.9999857201328692,0.9607204618984022
0.47761824880464077,0.01613121962516324,0.9999886976879215,13.487181191627343,0.9999864195829552,0.9530235775365427
0.48630221696472514,0.0160276359931501,0.9999889724477456,13.432761977913547,0.9999870070186736,0.9453177276839048
0.4949861851248095,0.01592379016242478,0.9999892505558992,13.370610331325807,0.9999875138658406,0.937601564221748
0.503670153284894,0.015819662376618655,0.999989527282347,13.300687787839358,0.9999879617509005,0.9298737164238189
0.5123541214449784,0.015715232325523222,0.9999897993874987,13.22295078697931,0.9999883655122634,0.9221327877116642
0.5210380896050628,0.015610479089522216,0.9999900647306439,13.137350532602388,0.9999887353309782,0.9143773522440879
0.5297220577651472,0.015505381079895906,0.9999903219501587,13.043832833088004,0.9999890782130187,0.9066059513155987
0.5384060259252317,0.015399915974459203,0.999990570220635,12.942337919499371,0.9999893990078681,0.8988170895360758
0.5470899940853161,0.015294060647923718,0.9999908090763087,12.83280024003499,0.9999897011023262,0.8910092307608468
0.5557739622454005,0.015187791096289373,0.9999910382861198,12.71514822881753,0.9999899868901284,0.8831807937368156
0.564457930405485,0.0150810823544723,0.9999912577667422,12.589304046757956,0.9999902580883889,0.8753301474261248
0.5731418985655694,0.014973908406258885,0.9999914675225274,12.455183291879598,0.9999905159500798,0.8674556059639814
0.5818258667256538,0.014866242085537685,0.9999916676040326,12.312694676082138,0.9999907614062782,0.8595554232015805
0.5905098348857383,0.0147580549675966,0.9999918580790859,12.16173966485873,0.9999909951610578,0.8516277867783949
0.5991938030458227,0.014649317249076725,0.9999920390120877,12.002212075938072,0.9999912177544579,0.8436708116602363
0.6078777712059071,0.014539997614939024,0.9999922104485012,11.83399763219211,0.99999142960389,0.8356825330702344
0.6165617393659916,0.014430063090516886,0.9999923724023411,11.656973463410905,0.9999916310308659,0.8276608987289269
0.625245707526076,0.014319478876384392,0.9999925248450331,11.471007550675978,0.9999918222776117,0.819603760306649
0.6339296756861604,0.014208208163352536,0.9999926676943408,11.275958106034416,0.9999920035165304,0.8115088639759462
0.6426136438462449,0.014096211924393585,0.9999928008021931,11.071672878952853,0.9999921748543597,0.8033738399332154
0.6512976120063293,0.013983448679663023,0.9999929239402234,10.857988379570301,0.9999923363321267,0.7951961907366047
0.6599815801664137,0.013869874230005155,0.9999930367816298,10.634729007016343,0.9999924879213811,0.7869732782804363
0.6686655483264982,0.013755441353348934,0.999993138877551,10.401706068947588,0.9999926295167214,0.7787023091940264
0.6773495164865826,0.013640099457166063,0.9999932296254529,10.158716675892506,0.9999927609241583,0.7703803184133793
0.686033484646667,0.013523794178593406,0.9999933082258537,9.905542490869806,0.999992881844318,0.7620041506260131
0.6947174528067515,0.013406466921807036,0.9999933736218567,9.641948310913806,0.9999929918488198,0.7535704392299075
0.7034014209668359,0.013288054319622808,0.9999934244128668,9.367680452411808,0.999993090347145,0.7450755823742158
0.7120853891269203,0.013168487602872826,0.9999934587287124,9.08246490628744,0.9999931765397924,0.736515715558083
0.7207693572870048,0.013047691856560366,0.999993474041479,8.786005221722796,0.9999932493510362,0.7278866801494808
0.7294533254470892,0.012925585135678631,0.9999934668764809,8.477980067867756,0.9999933073304875,0.7191839870415524
0.7381372936071736,0.012802077405224405,0.9999934323543437,8.158040411251807,0.9999933485054651,0.7104027744802693
0.746821261767258,0.012677069257338372,0.9999933634389737,7.825806231601961,0.9999933701532898,0.7015377588617174
0.7555052299273425,0.012550450342096276,0.9999932496488622,7.48086267938992,0.9999933684382507,0.6925831769927471
0.7641891980874269,0.012422097424780123,0.9999930747320505,7.122755553177849,0.9999933378096358,0.683532717911164
0.7728731662475113,0.012291871947424652,0.9999928121943948,6.7509859415825595,0.9999932699549267,0.6743794418374208
0.7815571344075958,0.012159616919237568,0.9999924159669468,6.365003830417484,0.9999931518686521,0.6651156831311416
0.7902411025676802,0.012025152877213308,0.999991798704735,5.964200415932608,0.9999929620096618,0.6557329331837701
0.7989250707277646,0.01188827252323211,0.9999907731542763,5.5478987836407825,0.9999926618444828,0.6462216978924988
0.8076090388878491,0.0117487334158876,0.9999888539059228,5.115342499481328,0.9999921744205422,0.6365713225811843
0.8162930070479335,0.011606247691344107,0.9999842731010228,4.665681503931483,0.9999913171927434,0.6267697747397327
0.8249769752080179,0.011460467033781431,0.9999613809664394,4.197954596266412,0.9999894971589491,0.6168033714378761
0.8336609433681024,0.011311926901227324,1.203230307370272e-05,3.7431771158712155,0.9999821986384408,0.6066564340154896
0.8423449115281868,0.011154510397572471,1.6638739316584614e-06,3.05972960013547,0.6785697227630628,0.5964662730475803
0.8510288796882712,0.01099113161232722,4.970949056129756e-07,2.1553709113744692,0.46046400910135915,0.5866627458460905
0.8597128478483557,0.01083632973780914,2.3105768352253234e-07,1.2647899202809323,0.3124626103599792,0.5780471122700511
0.8683968160084401,0.010729768327652184,1.1670485967451267e-06,0.6158319795140818,0.2120325170479609,0.573018846499752
0.8697128478483557,0.010722850267209507,1.0998826413557977e-06,0.5260210842722224,0.19993228910318378,0.5730188464997507
0.8710288796882713,0.01071873344198243,1.0370310565397218e-06,0.4757901908522945,0.1885226270075192,0.573019755172108
0.8723449115281868,0.010717279143254025,9.790414201236265e-07,0.4519481703404652,0.17776411986211,0.573063397122042
0.8736609433681024,0.010719221188439638,9.283694090613376e-07,0.45244249574257595,0.16761960601085443,0.5732058769484116
0.874976975208018,0.010725234339813986,8.910429797125836e-07,0.4440617824395683,0.15805404478321902,0.573711580160453
0.8762930070479336,0.010742850496222131,8.686256025086481e-07,0.4267602005493041,0.1490343956517677,0.5751474970832875
0.8776090388878491,0.0107732758430102,8.572886285136538e-07,0.4131478322091158,0.14052950382760718,0.5775215711991243
0.8789250707277647,0.010815166218868447,8.540641217607641e-07,0.4037761860097309,0.13250999233205055,0.5807280500677865
0.8802411025676803,0.010867181977165387,8.572099115789458e-07,0.3977114354212434,0.12494816058468944,0.5846719294664222
0.8815571344075959,0.0109281708578736,8.657038592927777e-07,0.39404071103627236,0.11781788879995823,0.5892726037853806
0.8828731662475114,0.010997152820381615,8.789471618288397e-07,0.3920606248013277,0.11109454781100137,0.5944612236404898
0.884189198087427,0.011073287072611897,8.966015222163195e-07,0.3912617528095609,0.10475491402303148,0.6001781787353887
0.8855052299273426,0.011155843414876448,9.184977384271302e-07,0.39128384868244154,0.09877708921107517,0.606371178367248
0.8868212617672582,0.011244180182196584,9.445829503257381e-07,0.39187511465090386,0.09314042488970814,0.6129938416489166
0.8881372936071738,0.011337727798629437,9.748895367042115e-07,0.39286076869732467,0.08782545099605994,0.6200046659673744
0.8894533254470893,0.011435976585576817,1.009516571074649e-06,0.39412004939510875,0.08281380864116146,0.6273662660936546
0.8907693572870049,0.011538467666547496,1.0486188183026513e-06,0.3955697627190407,0.07808818669816783,0.635044804486296
0.8920853891269205,0.011644786086238855,1.092400422378918e-06,0.3971526376011032,0.0736322620089152,0.6430095559680026
0.8934014209668361,0.011754555500264392,1.1411116282571382e-06,0.3988291398901638,0.06943064300257612,0.6512325667055421
0.8947174528067516,0.011867433975884942,1.1950475565357735e-06,0.40057174938858636,0.0654688165318565,0.6596883794680003
0.8960334846466672,0.011983110579775991,1.2545484433047138e-06,0.4023609826943376,0.06173309774322351,0.6683538056943638
0.8973495164865828,0.012101302526654461,1.3200009926171908e-06,0.40418264981379953,0.0582105828080929,0.6772077309369884
0.8986655483264984,0.01222175273214782,1.3918406332544613e-06,0.4060259803536945,0.054889104351763064,0.6862309444823007
0.8999815801664139,0.012344227662306605,1.470554562462262e-06,0.4078823605426754,0.05175718942618378,0.6954059869045557
0.9012976120063295,0.012468515406427648,1.5566855187706963e-06,0.40974449728464724,0.04880401988142649,0.7047170113555772
0.9026136438462451,0.012594423923611032,1.6508362665218688e-06,0.4116058787165285,0.04601939499900188,0.7141496557991563
0.9039296756861607,0.01272177942978609,1.7536748038946366e-06,0.4134604386550747,0.043393696257979494,0.723690924352851
0.9052457075260762,0.0128504249030101,1.8659403286640626e-06,0.4153023593486722,0.040917854112230805,0.7333290765373232
0.9065617393659918,0.012980218692239916,1.9884500145676966e-06,0.41712596625730125,0.038583316664061604,0.7430535236502366
0.9078777712059074,0.013111033219620665,2.122106667848724e-06,0.41892568239164496,0.03638202012605213,0.7528547317464603
0.909193803045823,0.013242753769422237,2.2679073495709284e-06,0.42069601962114617,0.03430636096910064,0.7627241308673901
0.9105098348857386,0.013375277358646777,2.4269530655505465e-06,0.4224315914232878,0.03234916966049229,0.7726540302539074
0.9118258667256541,0.013508511685425308,2.600459642910459e-06,0.4241271365839784,0.030503685901310636,0.7826375393239257
0.9131418985655697,0.01364237415189816,2.7897699309002185e-06,0.42577754693718856,0.02876353527769038,0.7926684942134707
0.9144579304054853,0.013776790958524646,2.9963674842533514e-06,0.4273778947567842,0.027122707245298236,0.8027413896813756
0.9157739622454009,0.013911696266825832,3.2218919104709093e-06,0.42892345717762254,0.02557553437103796,0.8128513161697878
0.9170899940853164,0.014047031427520076,3.4681560885447583e-06,0.43040973623821743,0.024116672760323674,0.8229939018010374
0.918406025925232,0.014182744270923317,3.737165496325781e-06,0.43183247395762486,0.022741083602367075,0.8331652590792896
0.9197220577651476,0.014318788456392255,4.031139917623924e-06,0.4331876623967457,0.02144401576979292,0.8433619360548189
0.9210380896050632,0.014455122877512334,4.352537838905093e-06,0.43447154899081225,0.020220989412547106,0.8535808717008626
0.9223541214449787,0.014591711119684232,4.704083889933276e-06,0.4356806376350848,0.019067780489505887,0.8638193552482335
0.9236701532848943,0.014728520966749873,5.088799733829098e-06,0.43681168610325993,0.017980406184444575,0.8740749892213927
0.9249861851248099,0.01486552395332069,5.5100388708609365e-06,0.4378617004093688,0.016955111156091492,0.8843456559212435
0.9263022169647255,0.015002694959525937,5.971525888111302e-06,0.4388279267118917,0.01598835457488857,0.8946294871042374
0.927618248804641,0.015140011844983252,6.477400765435519e-06,0.4397078413197642,0.015076797901814354,0.9049248366140823
0.9289342806445566,0.015277455118902633,7.032268938558367e-06,0.44049913930552836,0.01421729336720797,0.915230255730964
0.9302503124844722,0.015415007643363501,7.64125792470826e-06,0.4411997221691523,0.013406873109973029,0.9255444710133179
0.9315663443243878,0.015552654366948675,8.310081437101012e-06,0.44180768493249883,0.012642738939848025,0.9358663644184761
0.9328823761643034,0.01569038208607295,9.045112054263821e-06,0.4423213029826932,0.011922252687612834,0.9461949555005031
0.9341984080042189,0.015828179231505077,9.853463670932853e-06,0.44273901892497475,0.011242927110169634,0.9565293854960378
0.9355144398441345,0.01596603567774568,1.0743085140594431e-05,0.44305942965328016,0.010602417319400216,0.9668689031215961
0.9368304716840501,0.01610394257308756,1.1722866725148594e-05,0.4432812738004368,0.009998512705574723,0.9772128519184058
0.9381465035239657,0.016241892188346915,1.2802761189968789e-05,0.44340341968951785,0.009429129327886244,0.9875606589932678
0.9394625353638812,0.016379877781570323,1.3993921520715707e-05,0.4434248442497851,0.008892302746436723,0.9979118250159338
0.9407785672037968,0.01651789346393469,1.5308856126494628e-05,0.44334450126674174,0.0083861812717306,1.008265915030168
0.9420945990437124,0.016655934076271285,1.676160488113527e-05,0.4431614027524261,0.007909019609412192,1.0186225486653666
0.943410630883628,0.016793995130548627,1.8367941422940772e-05,0.4428748241500617,0.007459172879862622,1.0289813944090798
0.9447266627235436,0.016932072725677275,2.01456006029685e-05,0.44248412529450426,0.00703509099434867,1.0393421644696654
0.9460426945634591,0.017070163474137458,2.2114533542045663e-05,0.4419887374977672,0.006635313371187871,1.0497046093620404
0.9473587264033747,0.017208264437514408,2.429719207046724e-05,0.44138815618579585,0.006258463977400495,1.0600685131250696
0.9486747582432903,0.017346373069695244,2.6718843213539764e-05,0.4406819341671195,0.00590324668317518,1.0704336891094477
0.9499907900832059,0.017484487166868026,2.940791348728683e-05,0.4398696755012775,0.0055684409179597195,1.080799976271924
0.9513068219231214,0.017622607706790167,3.2396361914170934e-05,0.438983876341049,0.005252897617873892,1.091167235918335
0.952622853763037,0.017760811659038422,3.572008011546696e-05,0.43891921092248776,0.004955535454192272,1.1015353488439086
0.9539388856029526,0.017899132950275506,3.9419317927674364e-05,0.44007793694503694,0.004675337331710701,1.111904212824791
0.9552549174428682,0.018037569992860217,4.3539134141594084e-05,0.4424600658184115,0.0044113471438893635,1.1222737404197147
0.9565709492827837,0.01817612093173613,4.812987465203774e-05,0.4460655993661639,0.004162666768955149,1.132643857045208
0.9578869811226993,0.018314783639885975,5.324768506083402e-05,0.4508945336333931,0.003928453288048219,1.1430144992918216
