Time [s],Lmtc [m],STIM [ ],Fsee [N],Gamma [ ],Lcerel [ ]
0.0,0.01925530347500514,0.9999998518014869,0.7297222244988775,0.05971601705709512,1.211975126030411
0.0015809310352088595,0.019321195339263495,0.9999998513430584,2.018470211967905,0.09481994668038772,1.2119751260224387
0.003161862070417719,0.01935699136723789,0.9999998318085187,3.318407014780446,0.12861332958836585,1.211162133322736
0.004742793105626579,0.019357747445718318,0.9999997893259156,4.449616267305103,0.16114509214594464,1.208707929196321
0.006323724140835438,0.01933724447784484,0.9999997294434209,5.316176783013754,0.19246233398920853,1.2054572395478749
0.007904655176044297,0.019303761018484245,0.9999996551939767,5.94164375974297,0.22261039657496814,1.2017947853865454
0.009485586211253156,0.019262442367237814,0.9999995691882715,6.390837816158857,0.25163292872555193,1.1979058282716177
0.011066517246462015,0.019216368782510235,0.9999994738540531,6.721480842411557,0.2795719498047289,1.1938860831876033
0.012647448281670874,0.01916735670106829,0.9999993714200066,6.973926859720996,0.30646791054399874,1.189788423640499
0.014228379316879734,0.019116489734904457,0.999999263876021,7.174307207780375,0.33235975159743036,1.185643820946584
0.015809310352088594,0.01906443011892013,0.9999991529521798,7.339242591198073,0.3572849599089711,1.1814713213062702
0.017390241387297455,0.019011594127502272,0.9999990401181778,7.479371434004252,0.38127962297459217,1.1772831058727125
0.018971172422506316,0.01895825081457248,0.9999989265970607,7.601616696333755,0.4043784810786243,1.173087209297928
0.020552103457715177,0.018904578568671095,0.9999988133871514,7.710576912404424,0.4266149775804503,1.1688890568547423
0.022133034492924038,0.01885069832232769,0.9999987012875943,7.8093732666193745,0.4480213073246477,1.1646923732603147
0.0237139655281329,0.01879669359291557,0.999998590924512,7.900169770062102,0.46862846324477064,1.1604997413403095
0.02529489656334176,0.01874262291157854,0.9999984827759768,7.984497661218103,0.4884662812282368,1.1563129573000628
0.02687582759855062,0.01868852773563829,0.9999983771948393,8.063461452039892,0.5075634833071869,1.152133263457868
0.02845675863375948,0.018634437610612807,0.9999982744289997,8.137872329489971,0.5259477192377418,1.1479615047283667
0.030037689668968342,0.018580373615062363,0.9999981746390404,8.208336177295722,0.5436456065277213,1.1437982362782584
0.0316186207041772,0.01852635070784055,0.9999980779133334,8.275312725447586,0.5606827689706542,1.1396437991049806
0.03319955173938606,0.018472379358215767,0.9999979842808322,8.33915599308837,0.5770838737417487,1.1354983740551905
0.03478048277459492,0.01841846669780725,0.9999978937217993,8.40014239613763,0.5928726671094251,1.1313620210511994
0.036361413809803775,0.01836461734759894,0.9999978061767294,8.458490583315339,0.6080720088140175,1.127234707979385
0.03794234484501263,0.018310834020292564,0.9999977215537135,8.514375636726532,0.6227039051633383,1.1231163322316453
0.03952327588022149,0.018257117964803598,0.9999976397344686,8.567939375143306,0.6367895408929479,1.1190067369458245
0.04110420691543035,0.018203469298177552,0.9999975605792312,8.619297923853281,0.6503493098372016,1.11490572336828
0.042685137950639204,0.01814988725610566,0.999997483930684,8.668547341885734,0.6634028444554257,1.11081306034386
0.04426606898584806,0.018096370383830565,0.9999974096170637,8.71576785141035,0.6759690442559285,1.106728491653488
0.04584700002105692,0.018042916682881653,0.9999973374545685,8.761027049534446,0.6880661031589682,1.1026517417220025
0.047427931056265776,0.017989523724721436,0.9999972672491687,8.80438237113977,0.6997115358382541,1.098582520080114
0.049008862091474634,0.01793618873935159,0.9999971987978992,8.845882994765942,0.7109222030791041,1.0945205248655236
0.05058979312668349,0.017882908684789922,0.9999971318897019,8.88557133027743,0.7217143361899447,1.0904654455770009
0.05217072416189235,0.017829679581077104,0.9999970663058664,8.923447170160978,0.7321035605024782,1.0864169652433422
0.053751655197101206,0.017776495096588477,0.9999970018201072,8.959393257720606,0.7421049179945276,1.0823747621308406
0.05533258623231006,0.0177233513883274,0.9999969381983029,8.993422822258017,0.7517328890683003,1.0783385110844868
0.05691351726751892,0.01767024480680699,0.9999968751979118,9.02556158010448,0.7610014135155838,1.0743078845767386
0.05849444830272778,0.017617171607896533,0.9999968125670666,9.055832332664002,0.7699239107002203,1.0702825535215192
0.060075379337936635,0.017564127970087235,0.9999967500433437,9.084255360058918,0.7785132989870681,1.0662621878987633
0.06165631037314549,0.017511110008137643,0.9999966873521856,9.110848743885517,0.7867820144455714,1.0622464572253147
0.06323724140835435,0.01745811378379022,0.9999966242049496,9.135628633325421,0.7947420288549992,1.0582350309006314
0.06481817244356321,0.017405135314104807,0.999996560296537,9.158609465706688,0.8024048670374232,1.0542275784499964
0.06639910347877206,0.01735217057784199,0.9999964953025438,9.179804150209565,0.8097816235435019,1.050223769683432
0.06798003451398092,0.01729921552024157,0.9999964288758557,9.199224221572901,0.8168829787152277,1.0462232747849491
0.06956096554918978,0.0172462660564726,0.9999963606425845,9.216879969238606,0.8237192141488696,1.0422257643439372
0.07114189658439864,0.017193318073977105,0.9999962901972165,9.232780546270167,0.8303002275804781,1.038230909338229
0.0727228276196075,0.01714036743388674,0.9999962170968052,9.246934061521138,0.8366355472154897,1.0342383810765738
0.07430375865481635,0.017087409971656975,0.9999961408539946,9.25934765785369,0.8427343455231353,1.0302478511067634
0.07588468969002521,0.017034441497036236,0.9999960609285965,9.270027578673897,0.8486054525156035,1.0262589910944873
0.07746562072523407,0.016981457793464792,0.9999959767173668,9.278979224626209,0.8542573685311288,1.022271472677002
0.07904655176044292,0.016928454616980382,0.9999958875415137,9.286207201951491,0.8596982765394648,1.0182849672949135
0.08062748279565178,0.016875427694692607,0.9999957926313315,9.291715363741456,0.86493605398749,1.014299146004704
0.08220841383086064,0.0168223727228762,0.9999956911071527,9.295506845103239,0.8699782842019993,1.0103136792740952
0.0837893448660695,0.016769285364723045,0.9999955819555403,9.297584093070707,0.8748322673660799,1.006328236761878
0.08537027590127835,0.01671616130753462,0.9999954639993208,9.297952024678207,0.8795050310848181,1.0023424870834554
0.08695120693648721,0.016662997030444954,0.9999953358623239,9.296656848504968,0.8840033405554317,0.9983560998482176
0.08853213797169607,0.016609785490918,0.9999951959284459,9.293522471823076,0.8883337083564004,0.9943687992524386
0.09011306900690493,0.016556522839808362,0.9999950422758076,9.288490078911732,0.892502403869608,0.9903803820712637
0.09169400004211378,0.016503206367513616,0.9999948725909215,9.281559271535633,0.8965154623482665,0.9863906478170591
0.09327493107732264,0.01644983332336801,0.9999946840591041,9.272729205484524,0.900378693643101,0.9823993943998789
0.0948558621125315,0.016396400914707534,0.9999944732164615,9.261998599545977,0.9040976905986624,0.9784064180515915
0.09643679314774035,0.016342906305770722,0.9999942357464892,9.24936574282937,0.9076778371306556,0.9744115132423169
0.09801772418294921,0.01628934661644326,0.9999939661954776,9.234828500610307,0.9111243159941201,0.9704144725895517
0.09959865521815807,0.016235718920852276,0.9999936575661889,9.218384318837343,0.9144421162509706,0.9664150867602644
0.10117958625336693,0.016182020245814728,0.9999933007243642,9.200030227420093,0.9176360404435852,0.9624131443661734
0.10276051728857578,0.016128247569142877,0.9999928835090814,9.179762842397778,0.9207107114784174,0.9584084318523557
0.10434144832378464,0.01607439781780829,0.9999923893588769,9.157578367069977,0.9236705792194126,0.9544007333792615
0.1059223793589935,0.016020467865964852,0.9999917951154097,9.133472592155632,0.9265199267839732,0.9503898306981746
0.10750331039420236,0.0159664545328298,0.9999910673665419,9.107440895031322,0.9292628765218838,0.9463755030200813
0.10908424142941121,0.01591235458042094,0.999990156054334,9.079478238084002,0.9319033956344975,0.9423575268778956
0.11066517246462007,0.01585816471114679,0.9999889826214605,9.04957916619402,0.9344453013455067,0.938335675981915
0.11224610349982893,0.01580388156524539,0.9999874163475385,9.017737803335192,0.9368922654361431,0.9343097210683814
0.11382703453503779,0.015749501718065682,0.9999852224138621,8.983947848225743,0.9392478177276272,0.9302794297409683
0.11540796557024664,0.01569502167718316,0.9999819324925548,8.948202568850228,0.9415153474947104,0.9262445663050553
0.1169888966054555,0.015640437879337016,0.9999764584030175,8.910494795403231,0.9436980999951559,0.9222048915947182
0.11856982764066436,0.015585746687170101,0.9999655593782126,8.870816910660272,0.9457991587054342,0.9181601627927817
0.12015075867587321,0.015530944385845718,0.9999333113270894,8.829160840316884,0.9478213709981378,0.9141101332460857
0.12173168971108207,0.015476059612866725,0.5040019455869998,8.787171085805829,0.9497668834504972,0.9100545522917143
0.12331262074629093,0.015420900421682988,2.9140987507058614e-05,8.734422917351448,0.9193845771175926,0.9059944098558963
0.12489355178149979,0.015365362974188829,1.216467389340724e-05,8.66389947358105,0.8567234229951143,0.9019324602052378
0.12647448281670864,0.015309662115858538,6.687582188091069e-06,8.585043076744455,0.7983319985473422,0.897871082243359
0.12805541385191752,0.015253782678276675,4.1135108443908325e-06,8.496305772005552,0.7439200694060766,0.8938116321779501
0.1296363448871264,0.015197707565676288,2.688833696803096e-06,8.395822240403334,0.6932165972280878,0.889755876841411
0.13121727592233526,0.01514141801185962,1.825729308207264e-06,8.281378364962315,0.645968897698554,0.885706096063843
0.13279820695754413,0.015084894323205016,1.2725682229933744e-06,8.150397705183854,0.601941469007695,0.8816652088083982
0.134379137992753,0.015028117428062508,9.044134749286068e-07,7.99996106632544,0.560914843632059,0.877636927888812
0.13596006902796187,0.014971071681459428,6.52762842382501e-07,7.826879687638699,0.522684504097601,0.8736259486999662
0.13754100006317074,0.014913749512871308,4.773269267508361e-07,7.627847006526616,0.48705986785404815,0.8696381779001245
0.13912193109837961,0.014856158611492315,3.5316027293979994e-07,7.399694489656021,0.453863339415105,0.8656810082218291
0.14070286213358849,0.014798332341801747,2.642116205039386e-07,7.139769093720451,0.4229294262261951,0.8617636452980285
0.14228379316879736,0.014740343860430688,1.998457428509628e-07,6.846428167510524,0.3941039143536794,0.8578974911561916
0.14386472420400623,0.0146823238418062,1.5285537274872075e-07,6.519608660107456,0.3672431001207515,0.8540965862262482
0.1454456552392151,0.0146244807551341,1.1827015467516774e-07,6.161375105388623,0.34221307397833167,0.8503781064772282
0.14702658627442397,0.014567121390708739,9.261521039189301e-08,5.7763015879600355,0.3188890531050267,0.8467629038386187
0.14860751730963284,0.014510668237835547,7.343484024596329e-08,5.37152715922368,0.2971547594455042,0.8432760668655616
0.1501884483448417,0.01445567013176667,5.8978503389344615e-08,4.95637490161769,0.27690184010833796,0.8399474705084163
0.15176937938005058,0.014402804137632272,4.798937347636391e-08,4.541548813092691,0.25802932724723415,0.8368122995296816
0.15335031041525946,0.014352869837983655,3.9559899744682696e-08,4.138058913045673,0.240443134741498,0.8339116134505528
0.15493124145046833,0.014306778954544639,3.3033081757580185e-08,3.756028887504892,0.22405558917213397,0.8312931874080409
0.1565121724856772,0.014265535908876668,2.7936035813803796e-08,3.403318862356616,0.20878499275915482,0.8290128216665195
0.15809310352088607,0.014255303475003618,1.1193710117102262e-07,3.8889880761697104,0.19455521608387608,0.8271349269642383
0.1585256934380786,0.014250154642296025,1.0960433248442215e-07,3.716357993682532,0.19083340333395726,0.8271349269620732
0.15895828335527112,0.01424505003502095,1.0731619430641447e-07,3.5490786274273987,0.18718279197213822,0.8271349285310373
0.15939087327246365,0.014239994881033783,1.0507183032254168e-07,3.3872159577078724,0.18360201985636393,0.8271349302155262
0.15982346318965618,0.014234993909316672,1.0287040311354048e-07,3.230805268214079,0.1800897509034955,0.8271349320290895
0.1602560531068487,0.014230051527744607,1.0071109128258118e-07,3.0798593978845235,0.17664467459078054,0.8271349339875186
0.16068864302404123,0.01422517181901238,9.859308914925592e-08,2.9343701741247115,0.17326550546686248,0.8271349361093566
0.16112123294123376,0.014220358539369591,9.651560644958478e-08,2.7943099291517752,0.169950982672143,0.8271349384165724
0.1615538228584263,0.014215615119948026,9.447786804199083e-08,2.6596330719484076,0.16669986946832194,0.8271349409354516
0.16198641277561882,0.014210944670453625,9.247911361922947e-08,2.5302776904384454,0.16351095277693609,0.8271349436977944
0.16241900269281134,0.014206349984992487,9.05185974263121e-08,2.406167160975348,0.16038304272672713,0.8271349467425683
0.16285159261000387,0.014201833549808226,8.859558798455595e-08,2.2872117450036304,0.15731497220966803,0.8271349501182209
0.1632841825271964,0.014197397552731854,8.670936782204937e-08,2.173310155808986,0.1543055964454839,0.8271349538860145
0.16371677244438892,0.01419304389419426,8.485923321111186e-08,2.0643510817275996,0.15135379255450288,0.8271349581249688
0.16414936236158145,0.014188774199750108,8.304449391387829e-08,1.960214656423628,0.14845845913867992,0.8271349629394389
0.16458195227877398,0.014184589834271451,8.12644729382694e-08,1.8607738729419312,0.14561851587063454,0.8271349684712224
0.1650145421959665,0.014180491918455369,7.951850630910245e-08,1.7658959492447441,0.14283290309055222,0.8271349749198821
0.16544713211315903,0.014176481349557542,7.780594286514293e-08,1.6754436782209663,0.14010058141079607,0.827134982579012
0.16587972203035156,0.01417255883207617,7.612614410946995e-08,1.5892768677546874,0.1374205313280833,0.8271349919062757
0.1663123119475441,0.014168724937926086,7.447848419425702e-08,1.5072542370609938,0.13479175284308087,0.8271350036735384
0.16674490186473662,0.014164980281128335,7.286235034435919e-08,1.4292373753305407,0.13221326508727868,0.8271350193395495
0.16717749178192914,0.014161326379597333,7.127714544643211e-08,1.3551076672366402,0.12968410595700108,0.8271350422071649
0.16761008169912167,0.014157781199969684,6.972232677053551e-08,1.285065645463632,0.12720333175441953,0.8271350827759584
0.1680426716163142,0.014155379767076532,6.819961619517218e-08,1.2386427710308028,0.12477001683543477,0.827135242204158
0.16847526153350673,0.014153845933441076,6.671186401598848e-08,1.2080325675764096,0.12238325326433667,0.8271409238774751
0.16890785145069925,0.014152650541819087,6.525982584314135e-08,1.1817251695581903,0.12004215047504935,0.827156249667115
0.16934044136789178,0.014151845256516256,6.384355488856027e-08,1.1601258680035629,0.11774583493879531,0.8271829256570676
0.1697730312850843,0.014151519994477897,6.246417834283274e-08,1.1440882616752612,0.11549344983814397,0.8272237131283703
0.17020562120227684,0.014151823636765298,6.112496657792148e-08,1.1350497842568579,0.11328415474733018,0.8272834314808682
0.17063821111946936,0.014153006405634815,5.983430279892759e-08,1.1352515296165735,0.1111171253187086,0.8273713334784263
0.1710708010366619,0.014155412972856423,5.8614390938504594e-08,1.1460300257561182,0.1089915529752634,0.8275078369916488
0.17150339095385442,0.014159167994942597,5.7512441135794434e-08,1.1571482157715527,0.10690664460916736,0.8277443266899988
0.17193598087104695,0.014164837875273877,5.6576455539064234e-08,1.1540730530905314,0.1048616222863213,0.8281821463130608
0.17236857078823947,0.01417369926267928,5.581875726034025e-08,1.1417978080084572,0.10285572295608321,0.8288968890612141
0.172801160705432,0.014186288444403254,5.522458041991611e-08,1.1266365863766907,0.10088819816585239,0.8299034050623721
0.17323375062262453,0.01420266543834266,5.477447126712129e-08,1.1112276728111488,0.09895831378127826,0.8311955169101958
0.17366634053981705,0.014222740270603901,5.4451040938991524e-08,1.0965793542622884,0.09706534971225053,0.832762303370667
0.17409893045700958,0.014246378074673749,5.423987327980699e-08,1.0830645267844599,0.09520859964426055,0.834592028915726
0.1745315203742021,0.014273432659686825,5.412926467901377e-08,1.0707913856962745,0.09338737077491908,0.8366731889693113
0.17496411029139464,0.014303758433077218,5.410979017104512e-08,1.0597512635864292,0.09160098355550994,0.8389948141533081
0.17539670020858716,0.014337214911561053,5.417390322333535e-08,1.0498830639846841,0.08984877143747955,0.8415465487263307
0.1758292901257797,0.014373668380359252,5.431560590390237e-08,1.041103401064015,0.08813008062376887,0.8443186512466762
0.17626188004297222,0.014412992357138894,5.453018642774354e-08,1.0333213862113224,0.08644426982489607,0.8473019669456937
0.17669446996016475,0.014455067528741823,5.4814012972389106e-08,1.0264460526354624,0.08479071001970051,0.850487890332493
0.17712705987735727,0.014499781453163609,5.516437262266056e-08,1.0203900588193389,0.08316878422066001,0.853868325513758
0.1775596497945498,0.014547028162937705,5.557934614119289e-08,1.015071438210937,0.08157788724369498,0.8574356473714763
0.17799223971174233,0.014596707736029,5.6057711250393833e-08,1.0104142984394968,0.08001742548237337,0.8611826649007359
0.17842482962893486,0.01464872586700955,5.659886881804003e-08,1.0063489510289805,0.07848681668643395,0.8651025871858935
0.17885741954612738,0.014702993454659804,5.7202787703115235e-08,1.0028117359210562,0.07698548974454515,0.8691889921126085
0.1792900094633199,0.01475942621354019,5.786996508472728e-08,0.9997446893761922,0.0755128844712188,0.8734357977364142
0.17972259938051244,0.014817944312525009,5.860139992837735e-08,0.9970951398886618,0.07406845139779927,0.8778372361495873
0.18015518929770497,0.014878472040855788,5.9398577898754614e-08,0.9948152804714943,0.07265165156745122,0.8823878296575499
0.1805877792148975,0.014940937500980097,6.026346655430262e-08,0.99286174464272,0.07126195633406893,0.8870823690697094
0.18102036913209002,0.015005272326783298,6.119852009376108e-08,0.9911952010773113,0.06989884716503238,0.8919158939153198
0.18145295904928255,0.015071411425516767,6.220669329852536e-08,0.9897799745511415,0.06856181544773707,0.8968836744062672
0.18188554896647507,0.01513929274162363,6.32914646510645e-08,0.9885836964452975,0.06725036229982524,0.9019811949823839
0.1823181388836676,0.015208857040672354,6.445686892912044e-08,0.9875769855120105,0.06596399838304814,0.9072041392891333
0.18275072880086013,0.015280047711679966,6.570753989621952e-08,0.9867331581258141,0.06470224372068971,0.9125483764514346
0.18318331871805266,0.015352810586209537,6.704876404879146e-08,0.986027966432099,0.06346462751848385,0.9180099485205216
0.18361590863524518,0.015427093772743691,6.848654675733626e-08,0.9854393624012563,0.06225068798895906,0.9235850589828677
0.1840484985524377,0.015502847504956277,7.00276925742785e-08,0.9849472856410559,0.061059972179144446,0.9292700622312621
0.18448108846963024,0.015580024002622915,7.167990199896852e-08,0.9845334728123668,0.05989203580157366,0.9350614539081712
0.18491367838682277,0.015658577344023924,7.345188762125388e-08,0.9841812865723587,0.05874644306852339,0.9409558620405445
0.1853462683040153,0.015738463348798516,7.535351334825336e-08,0.983875562094859,0.05762276652942565,0.9469500388933495
0.18577885822120782,0.015819639470306616,7.739596140571718e-08,0.9836024693661326,0.05652058691139283,0.9530408534763937
0.18621144813840035,0.015902064696643917,7.95919330641037e-08,0.9833493896100677,0.05543949296279692,0.959225284645509
0.18664403805559288,0.015985699459537095,8.195589066289276e-08,0.9831048043512525,0.054379081299845186,0.9655004147450112
0.1870766279727854,0.016070505550419962,8.450435062167947e-08,0.9828581957718145,0.05333895625609542,0.9718634237435624
0.18750921788997793,0.01615644604305791,8.725623990929571e-08,0.9825999571557982,0.0523187297348559,0.9783115838202335
