Time [s],Lmtc [m],STIM [ ],Fsee [N],Gamma [ ],Lcerel [ ]
0.0,0.0212989423403784,0.9999997154323799,1.720462515866137,0.09293392365190907,1.3612920286251198
0.003403528432267289,0.02127057547278346,0.9999994516866868,3.496839585174468,0.1642721371542867,1.3542922921041176
0.006807056864534578,0.02117782381915885,0.9999990334727945,4.41037816795499,0.2299997769069213,1.3453264762555612
0.010210585296801867,0.021068797549115365,0.9999985309830227,4.935936896484699,0.29055808685515894,1.3360865155889783
0.013614113729069156,0.020956442499928,0.9999979994522038,5.321109563054196,0.34635361384991187,1.3269157686924538
0.017017642161336444,0.020844314156307393,0.9999974763106739,5.644854896695901,0.39776093530173057,1.3179009320004482
0.02042117059360373,0.02073349645438719,0.9999969844518642,5.935072004055316,0.44512517208852853,1.3090614406430123
0.02382469902587102,0.020624309477686037,0.9999965363929959,6.203321481045317,0.48876430408705224,1.3003954450622763
0.027228227458138306,0.02051680402600647,0.9999961377622398,6.45515193280126,0.5289713039214381,1.2918939351970682
0.030631755890405593,0.020410929165662034,0.9999957898372778,6.69359038133302,0.5660161031726029,1.2835457590891464
0.03403528432267288,0.020306596034723404,0.999995491273616,6.920479742026324,0.6001474041503585,1.2753395492890025
0.03743881275494017,0.020203704099736576,0.9999952392380845,7.137049820072407,0.6315943493105903,1.2672644707294645
0.040842341187207455,0.020102152392378572,0.9999950301339635,7.344184575267301,0.6605680594665423,1.259310485108773
0.04424586961947474,0.02000184428282982,0.9999948600550626,7.542557552664241,0.6872630510810722,1.2514684093307962
0.04764939805174203,0.01990268933158595,0.9999947250632224,7.732705459435146,0.7118585421285029,1.2437298864996873
0.05105292648400932,0.019804603786195293,0.9999946213521091,7.915070696019553,0.7345196552758828,1.2360873223123257
0.054456454916276605,0.019707510451050902,0.9999945453384521,8.090027351107791,0.7553985264502491,1.2285338109059367
0.05785998334854389,0.019611338280552275,0.9999944937074422,8.257897908683423,0.7746353262273229,1.2210630610321207
0.06126351178081118,0.019516021867405253,0.999994463429559,8.418964481783254,0.7923592008943801,1.2136693272129655
0.06466704021307847,0.01942150091031735,0.9999944517599605,8.573476676634925,0.8086891395024539,1.2063473475683506
0.06807056864534576,0.019327719701319617,0.9999944562275925,8.721657297460817,0.82373477272724,1.1990922885990385
0.07147409707761306,0.019234626650458553,0.9999944746185992,8.86370661575611,0.8375971089009402,1.191899696572161
0.07487762550988035,0.019142173854086765,0.999994504956943,8.999805652627819,0.8503692121559357,1.1847654548967668
0.07828115394214764,0.019050316707175247,0.999994545484057,9.130118761531655,0.8621368272328176,1.177685746804258
0.08168468237441494,0.018959013557273696,0.9999945946386519,9.25479570116568,0.87297895514739,1.1706570226642035
0.08508821080668223,0.01886822539653923,0.9999946510373354,9.373973327434324,0.8829683835814724,1.163675971320379
0.08849173923894953,0.01877791558788271,0.9999947134564128,9.487776994379388,0.8921721755584074,1.1567394948999636
0.09189526767121682,0.018688049621335686,0.999994780815048,9.59632172829298,0.9006521196841631,1.149844686618137
0.09529879610348412,0.018598594896998735,0.9999948521598396,9.699713221904386,0.9084651449768912,1.1429888111652515
0.09870232453575141,0.018509520531272715,0.9999949266508003,9.798048683578514,0.915663703070082,1.1361692873218427
0.1021058529680187,0.0184207971834358,0.9999950035486762,9.891417568035555,0.9222961203553907,1.1293836724975777
0.105509381400286,0.018332396899977565,0.9999950822035247,9.979902209039965,0.9284069224294107,1.1226296489339818
0.10891290983255329,0.0182442929744225,0.9999951620444527,10.063578370066336,0.934037133022707,1.1159050113481586
0.11231643826482059,0.018156459820662243,0.9999952425704146,10.142515725639587,0.9392245494181021,1.1092076558264266
0.11571996669708788,0.01806887285806878,0.9999953233419718,10.216778283540165,0.9440039962073546,1.1025355698036734
0.11912349512935518,0.017981508406880908,0.9999954039739173,10.286424756137919,0.9484075590899248,1.0958868229869525
0.12252702356162247,0.01789434359254595,0.9999954841286739,10.351508887616756,0.952464800283537,1.0892595591010088
0.12593055199388975,0.017807351956054426,0.9999955635103847,10.41184106681742,0.9562029569927788,1.0826519883496821
0.12933408042615704,0.01772050665879863,0.9999956418596155,10.467168192680662,0.9596471242682311,1.076062380500809
0.13273760885842434,0.01763378686220624,0.9999957189486004,10.51753372472842,0.9628204234838128,1.0694890585138508
0.13614113729069163,0.017547172212382344,0.9999957945769625,10.562977551949746,0.965744157563476,1.0629303926392573
0.13954466572295893,0.017460642758034994,0.9999958685678524,10.603535214361376,0.9684379539994211,1.0563847949268608
0.14294819415522622,0.017374178889533486,0.9999959407644476,10.63923807231432,0.9709198966220095,1.049850714087575
0.14635172258749352,0.017287761280966266,0.9999960110267626,10.670113453229172,0.9732066470060742,1.043326630658537
0.1497552510197608,0.01720137083469196,0.9999960792287204,10.696184777565588,0.9753135563287023,1.0368110524267826
0.1531587794520281,0.017114988627915852,0.999996145255443,10.717471665533541,0.9772547684294839,1.0303025100706336
0.1565623078842954,0.017028595860855932,0.999996209000715,10.73399002579375,0.9790433147651445,1.0237995529813575
0.1599658363165627,0.01694217380608742,0.9999962703645785,10.7457521271641,0.9806912018960593,1.0173007452304352
0.16336936474883,0.016855703758673034,0.9999963292510189,10.752766654141931,0.9822094920920073,1.0108046616499344
0.16677289318109728,0.01676916703606985,0.9999963855657504,10.755041530861293,0.9836083775983214,1.004309883995176
0.17017642161336458,0.01668254667881616,0.9999964392184945,10.752679762739113,0.9848972490610381,0.9978150009634523
0.17357995004563187,0.016595820338757263,0.9999964901328057,10.745333005590206,0.9860847585707806,0.9913188017128951
0.17698347847789916,0.016508973143653613,0.9999965382372995,10.732835871807461,0.9871788777491849,0.9848203976241828
0.18038700691016646,0.016421993220742767,0.9999965834555359,10.715182015850512,0.9881869512663124,0.9783189184824835
0.18379053534243375,0.016334868510587727,0.9999966257035201,10.69236263915896,0.9891157461483151,0.9718134883791999
0.18719406377470105,0.016247586746073173,0.999996664887337,10.664366470738369,0.9899714972072181,0.9653032242661953
0.19059759220696834,0.01616013543039922,0.9999967009003807,10.63117974119216,0.9907599488984281,0.9587872344754794
0.19400112063923564,0.016072501813953817,0.9999967336198348,10.592786150047178,0.991486393888838,0.9522646171972089
0.19740464907150293,0.015984672869932822,0.9999967629017548,10.549166826173568,0.9921557085994038,0.9457344589084362
0.20080817750377022,0.015896635268563525,0.9999967885736634,10.500300281050427,0.9927723859721856,0.9391958327445629
0.20421170593603752,0.015808375349771836,0.9999968104230645,10.44616235457892,0.9933405657044361,0.932647796804865
0.2076152343683048,0.015719879094116145,0.9999968281799665,10.386726153091782,0.993864062191398,0.9260893923827995
0.2110187628005721,0.015631132091790546,0.9999968414916719,10.32196197915337,0.9943463904218223,0.9195196421110086
0.2144222912328394,0.015542119509477894,0.9999968498890268,10.25183725268425,0.9947907900681264,0.9129375480100672
0.2178258196651067,0.015452826054806069,0.9999968527449982,10.176316422875072,0.9952002479951942,0.9063420894289561
0.221229348097374,0.01536323593813111,0.9999968492284346,10.095360870271426,0.9955775193668932,0.8997322208640813
0.22463287652964128,0.015273332831335406,0.9999968382573958,10.008928798309789,0.9959251474525542,0.8931068696423062
0.22803640496190858,0.015183099823288625,0.999996818456683,9.916975113461161,0.9962454821336398,0.8864649334519306
0.23143993339417587,0.015092519371572105,0.9999967881227263,9.819451292995435,0.9965406970031406,0.8798052777038147
0.23484346182644317,0.015001573250012744,0.9999967451959505,9.716305239219855,0.9968128048649212,0.8731267327028592
0.23824699025871046,0.014910242491508904,0.9999966872366972,9.607481118875322,0.9970636714045072,0.8664280906077722
0.24165051869097776,0.014818507325556684,0.9999966113962845,9.492919186201409,0.9972950268335751,0.8597081021544297
0.24505404712324505,0.014726347109797385,0.9999965143696091,9.372555588005747,0.9975084754077582,0.8529654731150846
0.24845757555551234,0.014633740254803532,0.9999963923083729,9.24632214889248,0.997705502864302,0.8461988604620941
0.2518611039877796,0.014540664141197373,0.9999962406613571,9.114146134608484,0.9978874819936557,0.8394068682006602
0.2552646324200469,0.014447095028048095,0.9999960538846354,8.975949991240523,0.998055676714821,0.8325880428301722
0.25866816085231414,0.01435300795131572,0.9999958249207416,8.83165105772424,0.9982112451398946,0.8257408683879619
0.2620716892845814,0.014258376610894633,0.9999955442638465,8.681161248789994,0.9983552421697367,0.8188637610225526
0.2654752177168487,0.014163173244547814,0.9999951982697836,8.52438670505219,0.9984886221508736,0.8119550630355394
0.26887874614911594,0.014067368486703143,0.9999947660420793,8.361227406430093,0.9986122420409795,0.8050130363219281
0.2722822745813832,0.013970931209690458,0.9999942134761828,8.19157674444865,0.9987268653730019,0.7980358551278091
0.2756858030136505,0.013873828344512019,0.9999934811259802,8.015321048180736,0.9988331670569007,0.7910215980312986
0.27908933144591774,0.013776024677633341,0.9999924569736265,7.832339057615897,0.998931738639317,0.7839682390373721
0.282492859878185,0.013677482619519966,0.9999909061192044,7.642501336997082,0.9990230927950825,0.7768736376590551
0.2858963883104523,0.01357816193967892,0.9999882478229416,7.445669618986024,0.9991076635442806,0.7697355278359174
0.28929991674271954,0.013478019461733676,0.9999825690830553,7.241696068300699,0.9991857901946417,0.7625515055158651
0.2927034451749868,0.01337700871084481,0.9999617514755536,7.030422464879341,0.9992576257330511,0.7553190147011826
0.2961069736072541,0.013275306566652004,3.75538458804677e-05,6.8218728476767625,0.9993223506481052,0.7480353317880751
0.29951050203952134,0.013171228296749358,5.845648326264799e-06,6.533127206566279,0.8584335233466502,0.7407151942780774
0.3029140304717886,0.01306583371602145,2.2073540804937013e-06,6.1998171458635385,0.737404292652988,0.7333851543262769
0.3063175589040559,0.012958892615080785,1.0266528629973194e-06,5.804592192280909,0.6334385902699572,0.7260666333693327
0.30972108733632314,0.012850182402534306,5.302427103802632e-07,5.327975346978692,0.5441309575027512,0.7187930563761156
0.3131246157685904,0.012739673299399113,2.953527902041084e-07,4.7558497078855515,0.4674148338451835,0.7116150495322313
0.3165281442008577,0.012627933514040705,1.7611149453635413e-07,4.09340480154694,0.4015149657708843,0.7046075814912509
0.31993167263312494,0.01251674066564763,1.122656485812083e-07,3.379189127265678,0.34490637408915736,0.6978800941463251
0.3233352010653922,0.012409693418404215,7.628182536518502e-08,2.684903097368223,0.2962790795688059,0.6915921310944544
0.3267387294976595,0.012312692850936242,5.4808712310413844e-08,2.093574201407905,0.25450779447598715,0.6859876779780354
0.33014225792992674,0.01223366412654124,4.137794591448849e-08,1.6419454735973922,0.21862588472109534,0.6815035622505397
0.333545786362194,0.012180224423767124,3.270734952991454e-08,1.278649916145058,0.1878030020814225,0.6788088391399097
0.3369493147944613,0.012150298452388852,2.6471118273196376e-08,0.9356313067405697,0.1613258695595758,0.6779904701719124
0.34035284322672854,0.012128923424138474,1.8050604246655362e-07,0.6139045776698887,0.138581775520474,0.6779904054674204
0.3409493147944613,0.012143715817826068,1.759620868380561e-07,0.8293654086870731,0.13493978471542017,0.6779904054674204
0.341545786362194,0.01214993370951224,1.7230344765233272e-07,0.8239001150527111,0.1313935139637702,0.6784830806586305
0.34214225792992675,0.012160673945109958,1.693474810720543e-07,0.8106847353918375,0.1279404475383289,0.6793525612041729
0.3427387294976595,0.012176519204368528,1.669992290246739e-07,0.7963805925320206,0.12457813582638952,0.6806108498375241
0.3433352010653922,0.012197387291473929,1.6515762964714707e-07,0.7831220473441474,0.1213041935943926,0.6822414089219161
0.34393167263312496,0.012223043575833018,1.637404021161414e-07,0.7714873917407674,0.1181162982957285,0.6842236486865274
0.3445281442008577,0.012253226239790338,1.6268326688484986e-07,0.7615470728427602,0.11501218842366905,0.6865374055556523
0.34512461576859044,0.012287679328509297,1.6193623848397934e-07,0.7531968836583166,0.11198966190756768,0.6891638445701201
0.3457210873363232,0.012326162086358249,1.6146031758510945e-07,0.746276340388541,0.10904657455111329,0.6920855875145944
0.3463175589040559,0.012368451072479553,1.61224934184245e-07,0.7406144105756471,0.10618083851154413,0.6952866420962155
0.34691403047178865,0.01241433983439891,1.6120603102066125e-07,0.7360476697882051,0.10339042081876412,0.6987522804062852
0.3475105020395214,0.012463637746029344,1.6138463219800203e-07,0.7324270891431858,0.10067334193333011,0.7024689110089083
0.3481069736072541,0.012516168607838347,1.6174576927635046e-07,0.7296198993038585,0.09802767434230063,0.7064239587374753
0.34870344517498686,0.012571769244134385,1.6227766980955397e-07,0.7275092982991044,0.09545154119196134,0.7106057562881933
0.3492999167427196,0.012630288189383367,1.6297113954304774e-07,0.7259932563319379,0.0929431149564641,0.7150034481479712
0.34989638831045233,0.012691584495385076,1.6381908870488978e-07,0.7249830029947296,0.09050061614144109,0.7196069061163208
0.35049285987818507,0.01275552666503797,1.6481616652863912e-07,0.7244014720110802,0.08812231202167882,0.7244066552678522
0.3510893314459178,0.012821991707129256,1.6595847787409186e-07,0.7241818289581833,0.08580651541195922,0.7293938091308197
0.35168580301365054,0.01289086430204435,1.6724336274126516e-07,0.7242661336178025,0.08355158347019867,0.7345600129205336
0.3522822745813833,0.012962036066899545,1.6866922444583463e-07,0.7246041520323279,0.08135591653203748,0.7398973937778398
0.352878746149116,0.01303540490868383,1.7023539582506075e-07,0.7251523155671626,0.07921795697605466,0.7453985170854163
0.35347521771684876,0.013110874454738764,1.7194203547573072e-07,0.7258728161597087,0.07713618811880397,0.7510563480528042
0.3540716892845815,0.013188353550907727,1.7379004796912728e-07,0.7267328237975573,0.07510913313888846,0.7568642178687977
0.35466816085231423,0.013267755818749553,1.7578102343706173e-07,0.7277038116727196,0.07313535402931062,0.7628157938152662
0.35526463242004697,0.013348999264240114,1.7791719301416554e-07,0.728760975111242,0.07121345057735574,0.7689050528198266
0.3558611039877797,0.013432005931334971,1.802013974517437e-07,0.72988273158803,0.06934205937128525,0.7751262579969003
0.35645757555551244,0.013516701594620399,1.8263706685682345e-07,0.7310502905402525,0.06751985283313561,0.781473937788828
0.3570540471232452,0.013603015486037045,1.8522821000663663e-07,0.732247283100342,0.065745538276937,0.7879428673721219
0.3576505186909779,0.01369088005132408,1.8797941208022382e-07,0.7334594431889737,0.06401785699168415,0.7945280520397504
0.35824699025871065,0.013780230732410158,1.908958399621227e-07,0.7346743325999521,0.062335583348408496,0.8012247123096639
0.3588434618264434,0.013871005772480245,1.939832545283491e-07,0.7358811037610975,0.060697523930719054,0.8080282705435319
0.3594399333941761,0.013963146040881816,1.9724802953737747e-07,0.7370702947712963,0.05910251668819497,0.8149343388886042
0.36003640496190886,0.014056594875410524,2.0069717693028516e-07,0.7382336521041059,0.057549430112029294,0.8219387083805243
0.3606328765296416,0.014151297939840211,2.0433837850387016e-07,0.7393639770459705,0.05603716243233963,0.8290373390663294
0.36122934809737434,0.014247203094842802,2.0818002406576653e-07,0.7404549925157852,0.05456464083657617,0.8362263510253108
0.3618258196651071,0.014344260280686187,2.1223125631750095e-07,0.7415012274055924,0.05313082070847265,0.8435020161813085
0.3624222912328398,0.014442421410307672,2.16502022845338e-07,0.7424979160015652,0.051734684887000976,0.8508607508137371
0.36301876280057255,0.014541640271541551,2.2100313573439503e-07,0.7434409104009194,0.05037524294480345,0.8582991086864906
0.3636152343683053,0.014641872437436343,2.2574633946336736e-07,0.7443266041432275,0.04905153048559085,0.8658137747241471
0.364211705936038,0.014743075183732614,2.3074438788975463e-07,0.7451518655320543,0.04776260846000901,0.8734015591737759
0.36480817750377076,0.014845207412690143,2.3601113130337272e-07,0.7459139793416047,0.0465075624994874,0.8810593921983666
0.3654046490715035,0.014948229582555008,2.415616147142385e-07,0.746610595789247,0.045285502267598254,0.8887843188545954
0.36600112063923623,0.015052103642045787,2.4741218875532984e-07,0.7472396858131868,0.044095560828466385,0.8965734944134676
0.36659759220696897,0.015156792969315111,2.535806348278105e-07,0.7477995018295827,0.04293689403178115,0.9044241799874516
0.3671940637747017,0.015262262314909805,2.6008630640386525e-07,0.7482885432585281,0.04180867991397544,0.9123337384321418
0.36779053534243444,0.015368477748310995,2.6695028873958685e-07,0.7487055262065713,0.04071011811514645,0.920299630494334
0.3683870069101672,0.015475406607686686,2.741955796487207e-07,0.7490493567774625,0.03964042931130581,0.9283194111817795
0.3689834784778999,0.015583017452533642,2.818472944612841e-07,0.749319107554636,0.03859885466155583,0.9363907263328335
0.36957995004563265,0.01569128001892406,2.8993289885625066e-07,0.7495139968604743,0.03758465526980097,0.9445113093667813
0.3701764216133654,0.01580016517710663,2.984824739357972e-07,0.7496333704501598,0.03659711166061274,0.9526789781979004
0.37077289318109813,0.01590964489124122,3.0752901872660364e-07,0.7496766853431962,0.03563552326887722,0.9608916322982967
0.37136936474883087,0.016019692181072374,3.1710879628473625e-07,0.7496434955345949,0.03469920794286371,0.9691472498962923
0.3719658363165636,0.016130281085369798,3.272617307869556e-07,0.7495334393612159,0.03378750146036309,0.9774438852986836
0.37256230788429634,0.016241386626983795,3.3803186446659043e-07,0.7493462283275678,0.032899757057553554,0.9857796663265174
0.3731587794520291,0.016352984779358128,3.494678850504396e-07,0.7490816368728258,0.032035344970260976,0.9941527918552349
0.3737552510197618,0.01646505243267213,3.6162373448428185e-07,0.7487394685223908,0.03119365198728983,1.0025615294459127
0.37435172258749455,0.016577567354762957,3.745593104012489e-07,0.7483194847509794,0.030374081015509733,1.011004212773072
0.3749481941552273,0.016690508170836286,3.883412960562914e-07,0.747821574736483,0.02957605065639081,1.0194792392472836
0.37554466572296,0.016803854337072512,4.030441335746182e-07,0.7472456934661785,0.028798994793690788,1.0279850683472005
0.37614113729069276,0.016917586111582655,4.1875116360680837e-07,0.7465918241984788,0.028042362192003952,1.0365202196301684
0.3767376088584255,0.017031684527763765,4.355559712361207e-07,0.7458599737827933,0.027305616105891328,1.045083270757191
0.37733408042615824,0.017146131368537907,4.535639831832302e-07,0.7450501685334547,0.02658823389931917,1.0536728555813932
0.377930551993891,0.017260909141422965,4.7289437263950995e-07,0.7441624505972055,0.0258897066751415,1.0622876622964226
0.3785270235616237,0.01737600105438935,4.936823429619834e-07,0.7431968747605997,0.025209538914370687,1.070926431641623
0.37912349512935645,0.017491390992461234,5.160818809495164e-07,0.7421535056497636,0.024547248124989082,1.079587955161132
0.3797199666970892,0.017607063495025797,5.40269096113115e-07,0.7410324152802127,0.023902364500062872,1.088271073514379
0.3803164382648219,0.017723031254747643,5.664462965304625e-07,0.7402407621459401,0.023274430584929427,1.0969746748356821
0.38091290983255466,0.017839316077956285,5.948469977670883e-07,0.7403107620653596,0.02266300095323876,1.1056976931409233
