Time [s],Lmtc [m],STIM [ ],Fsee [N],Gamma [ ],Lcerel [ ]
0.0,0.02087840913136703,0.9999997914230914,1.5174196657459682,0.08651218597883563,1.3304413197525917
0.002819041183174162,0.020880461440845887,0.99999965697187,3.3143583465758484,0.14643256930770712,1.3254584416454263
0.005638082366348324,0.020815992799180366,0.9999994290158388,4.407735940659091,0.2024224555251439,1.318188380672566
0.008457123549522487,0.02072863971863765,0.9999991383020674,5.0257605450519875,0.2547396601607645,1.3103931985710333
0.011276164732696648,0.02063379033165495,0.9999988129661755,5.43476515792105,0.30362508930511856,1.3024974493934667
0.01409520591587081,0.02053670387896392,0.9999984753039838,5.749477222953967,0.3493038486160785,1.2946336040545394
0.01691424709904497,0.02043931763561017,0.9999981413623846,6.015798986859527,0.39198627936799635,1.2868488594918208
0.01973328828221913,0.020342406711537624,0.9999978218648106,6.253596536209012,0.43186892651419273,1.2791599724247407
0.022552329465393293,0.02024629171721051,0.9999975234459823,6.4723568820963555,0.46913544330992074,1.271571308246932
0.025371370648567454,0.020151097490733273,0.9999972497819414,6.677052164998127,0.503957436677415,1.2640817948666365
0.028190411831741615,0.020056858367791416,0.9999970024929891,6.87051611373995,0.5364952571931947,1.256687916491906
0.031009453014915776,0.019963565002235385,0.9999967818182408,7.054489494125445,0.5668987373152329,1.2493851053112832
0.03382849419808994,0.01987118670435097,0.9999965871005553,7.230115601220107,0.5953078812302321,1.2421684213240243
0.036647535381264106,0.019779682678598785,0.999996417126692,7.398191008419858,0.621853509482051,1.2350328928203256
0.03946657656443827,0.019689007891212234,0.9999962703616808,7.5592999735057615,0.6466578613379278,1.2279736864101767
0.042285617747612435,0.019599116200306757,0.9999961451078033,7.713890239217498,0.6698351576577543,1.2209861881918893
0.0451046589307866,0.019509962031431443,0.9999960396106544,7.862317767907006,0.691492126852269,1.214066037498791
0.047923700113960764,0.019421501255316522,0.9999959521284278,8.004874247460345,0.7117284963478868,1.2072091351113694
0.05074274129713493,0.019333691618071157,0.9999958809758319,8.141804648589584,0.7306374518183445,1.2004116378455214
0.05356178248030909,0.019246492917028915,0.9999958245506209,8.273318824092486,0.7483060662958508,1.193669946137123
0.05638082366348326,0.01915986703174576,0.9999957813483071,8.399599419504863,0.7648157011363503,1.1869806883484464
0.05919986484665742,0.019073777873543658,0.9999957499689126,8.520807429391796,0.7802423806843641,1.1803407038980172
0.06201890602983159,0.018988191290857225,0.9999957291184355,8.637086207834942,0.7946571423620679,1.1737470263867869
0.06483794721300574,0.018903074952472485,0.9999957176068798,8.748564436912739,0.8081263637943077,1.1671968673552777
0.06765698839617991,0.018818398221770043,0.9999957143441203,8.855358375243602,0.8207120684756664,1.1606876009921763
0.07047602957935407,0.01873413202969033,0.9999957183344785,8.957573597460208,0.8324722113869669,1.1542167499314924
0.07329507076252824,0.018650248750859987,0.9999957286706016,9.055306365789274,0.8434609458763594,1.1477819721694753
0.0761141119457024,0.018566722085312192,0.9999957445270486,9.148644730251624,0.8537288730338922,1.1413810490727325
0.07893315312887657,0.018483526947004014,0.999995765153848,9.237669424778172,0.8633232747078896,1.1350118744169861
0.08175219431205073,0.018400639359583696,0.9999957898701991,9.322454607045252,0.8722883312361619,1.128672444380461
0.0845712354952249,0.01831803635940959,0.9999958180584263,9.403068476587224,0.8806653248946784,1.12236084841032
0.08739027667839906,0.01823569590555767,0.9999958491582442,9.47957379658648,0.8884928300005968,1.1160752608806541
0.09020931786157323,0.018153596796407878,0.999995882661369,9.552028338303353,0.8958068905450691,1.1098139334638686
0.09302835904474739,0.018071718592325918,0.9999959181064808,9.620485262511057,0.9026411861738417,1.1035751881422617
0.09584740022792156,0.017990041543928477,0.9999959550745374,9.684993448968644,0.909027187279998,1.0973574107922484
0.09866644141109572,0.01790854652541954,0.9999959931844202,9.745597782513745,0.9149942999230553,1.0911590452795195
0.10148548259426989,0.017827213238347572,0.9999960320888962,9.802246046488014,0.9205700012417828,1.0849785880090745
0.10430452377744405,0.017746017251121775,0.9999960714708678,9.854631217635237,0.9257799659843274,1.0788145828793572
0.10712356496061821,0.01766494047242641,0.9999961110398877,9.902758440085213,0.930648184738326,1.0726656165946051
0.10994260614379238,0.017583965796768544,0.9999961505289069,9.946661874695918,0.9351970744054642,1.0665303142939004
0.11276164732696654,0.01750307644966309,0.9999961896912285,9.986372248630158,0.9394475814292255,1.0604073354593355
0.11558068851014071,0.01742225594273367,0.9999962282976371,10.021916997917886,0.9434192782511913,1.0542953700691773
0.11839972969331487,0.017341488030834403,0.9999962661336719,10.053320391782174,0.947130453440094,1.0481931349649516
0.12121877087648904,0.017260756670892292,0.9999963029970127,10.080603640455237,0.9505981959086509,1.0420993704039947
0.1240378120596632,0.01718004598218721,0.9999963386949451,10.103784987916642,0.953838473606014,1.0360128367713113
0.12685685324283735,0.017099340207801232,0.9999963730418683,10.12287979074,0.9568662070482041,1.0299323114264969
0.12967589442601152,0.017018623676980982,0.9999964058568095,10.13790058402544,0.9596953380251455,1.0238565856631134
0.13249493560918568,0.01693788076816638,0.9999964369608991,10.148857135215293,0.9623388938006786,1.0177844617592442
0.13531397679235985,0.01685709587244555,0.9999964661747617,10.155756486433484,0.9648090471012032,1.0117147500990116
0.138133017975534,0.016776253357200167,0.9999964933157651,10.158602985849623,0.9671171721691818,1.0056462663456618
0.14095205915870818,0.016695338959264262,0.9999965181968397,10.157476648680664,0.9692738971396234,0.9995778286473924
0.14377110034188234,0.016614334825374322,0.9999965406335524,10.15219326203663,0.9712891529808426,0.9935083508421448
0.1465901415250565,0.016533225236088335,0.999996560440392,10.142468085601376,0.9731722192254094,0.987437048215986
0.14940918270823067,0.016452000334636997,0.9999965774186614,10.128296496088863,0.9749317667011214,0.9813631964363733
0.15222822389140483,0.01637065011755721,0.999996591351497,10.109671983951761,0.9765758974582388,0.9752860668152924
0.155047265074579,0.016289164419451618,0.9999966019993008,10.086586141911683,0.9781121820773554,0.9692049252529977
0.15786630625775316,0.016207532897030474,0.9999966090943737,10.059028648844938,0.9795476945297579,0.963119031157328
0.16068534744092733,0.016125745012362483,0.9999966123345183,10.026987248963035,0.9808890447507578,0.9570276363341523
0.1635043886241015,0.016043790015253644,0.9999966113753206,9.990447726194105,0.9821424090759509,0.9509299838442521
0.16632342980727566,0.015961656924664124,0.9999966058207204,9.949393873637822,0.983313558680501,0.9448253068216027
0.16914247099044982,0.015879334509064074,0.9999965952113579,9.903807457932254,0.9844078861523222,0.9387128272477004
0.171961512173624,0.015796811265618067,0.9999965790100037,9.853668178335287,0.9854304303214262,0.9325917546761401
0.17478055335679815,0.015714075398076302,0.999996556583135,9.79895362028606,0.9863858994596253,0.9264612849012305
0.17759959453997232,0.015631114793236693,0.9999965271773581,9.739639203171697,0.9872786929572478,0.9203205985638885
0.18041863572314648,0.015547916995826897,0.9999964898888668,9.675698121982029,0.9881129215764096,0.9141688596874837
0.18323767690632065,0.015464469181637434,0.9999964436233587,9.60710128248818,0.9888924263738019,0.9080052141356199
0.1860567180894948,0.015380758128717475,0.9999963870426869,9.533817229530424,0.9896207963796643,0.9018287879831041
0.18887575927266897,0.015296770186421555,0.9999963184927607,9.455812067944354,0.9903013851138287,0.8956386857904719
0.19169480045584314,0.015212491242069543,0.9999962359044515,9.373049375592956,0.9909373260142812,0.8894339887714806
0.1945138416390173,0.015127906684951547,0.9999961366548217,9.285490107902833,0.991531546848761,0.8832137528418469
0.19733288282219147,0.015043001367374615,0.9999960173687066,9.193092493226347,0.9920867831755592,0.8769770065362547
0.20015192400536563,0.0149577595624075,0.9999958736283484,9.095811918264824,0.9926055909160066,0.8707227487792115
0.2029709651885398,0.0148721649179322,0.9999956995372689,8.993600802690917,0.9930903580979717,0.8644499464936647
0.20579000637171396,0.014786200406556019,0.9999954870456241,8.886408461998354,0.9935433158265297,0.8581575320294135
0.20860904755488813,0.014699848270872966,0.999995224870729,8.77418095748192,0.993966548533188,0.8518444003911783
0.2114280887380623,0.014613089963486897,0.9999948967007793,8.656860932106685,0.9943620035454691,0.8455094062436875
0.21424712992123646,0.014525906081118816,0.9999944780695539,8.534387430858466,0.9947314999982221,0.8391513606682917
0.21706617110441062,0.014438276292013085,0.99999393073756,8.406695703969648,0.9950767370653192,0.8327690276422857
0.21988521228758479,0.014350179255729479,0.999993190185013,8.273716991185031,0.9953993014086822,0.8263611202083119
0.22270425347075895,0.01426159253425307,0.9999921414970971,8.135378284889741,0.9957006734483781,0.8199262962968025
0.22552329465393312,0.014172492493168681,0.9999905627032,7.9916020695837,0.9959822317571123,0.8134631541593218
0.22834233583710728,0.01408285419142283,0.9999878981289881,7.842306034785274,0.9962452535001913,0.8069702273648216
0.23116137702028144,0.013992651257891094,0.9999825163031525,7.687402756019279,0.996490900342885,0.800445979304674
0.2339804182034556,0.013901855752728766,0.9999669763567381,7.526799340876966,0.9967201564939807,0.7938887971472153
0.23679945938662977,0.013810598153690205,0.0002843361940046927,7.367869403166602,0.9969334645564525,0.7872969851937847
0.23961850056980394,0.013717650797135593,9.306534730790382e-06,7.148640147712332,0.8790541247310126,0.7806793556071348
0.2424375417529781,0.013623830937851494,3.401207520876573e-06,6.900050617133098,0.7750846528268565,0.7740504729433311
0.24525658293615227,0.013529004908666209,1.6239173415306887e-06,6.612306538874738,0.6834116644015374,0.7674198843969692
0.24807562411932643,0.013433016304429838,8.681572845708003e-07,6.273269424698449,0.6025812583336511,0.7608018767819704
0.2508946653025006,0.01333571858798966,4.96534186173073e-07,5.869825780257275,0.531311128926714,0.7542173010257723
0.25371370648567476,0.013237059807824629,2.988233303062693e-07,5.391427075759785,0.46847056217839517,0.7476959776999761
0.2565327476688489,0.013137248952592877,1.8819723318126614e-07,4.836280941569817,0.4130625565156334,0.741279866286242
0.2593517888520231,0.013037008205961736,1.2390653827816095e-07,4.218622537745224,0.3642080223041948,0.7350272749875696
0.26217083003519726,0.012937853849337815,8.526303569740222e-08,3.572453028420513,0.3211318410455495,0.7290185594489066
0.2649898712183714,0.012842317597701117,6.120750068924506e-08,2.9471245376601574,0.28315057037089153,0.7233644996935432
0.2678089124015456,0.012754128856234908,4.562246182615713e-08,2.395313672236763,0.24966160201590354,0.7182238022589567
0.27062795358471975,0.01267826290890582,3.514248897119328e-08,1.9498405435052226,0.2201336016017594,0.7138528571871157
0.2734469947678939,0.012620102244419944,2.797774923868817e-08,1.5925544295072094,0.1940980789097531,0.7106625561471714
0.2762660359510681,0.012582935096098154,2.291409381394006e-08,1.2919436080780804,0.17114195505817173,0.7089679474934264
0.27908507713424224,0.012560163161945895,1.8940170340487972e-08,0.9851081924084801,0.15090100869182874,0.7085171260462872
0.2819041183174164,0.012541664111798616,1.3734951581796363e-07,0.6947050882515854,0.13305409729157258,0.7085170815994788
0.2824184104675756,0.01255575824429923,1.342112416382687e-07,0.9113775112916124,0.13003363462635298,0.7085170815994788
0.2829327026177348,0.01256011842843177,1.3151785352668286e-07,0.9150705704900437,0.12708174467375583,0.7088273104255066
0.283446994767894,0.012567332537664998,1.292439215192556e-07,0.9065294432310974,0.12419687065529514,0.7094075392796507
0.28396128691805317,0.012578534434562026,1.273720452464994e-07,0.893394754689759,0.12137749113504782,0.7103082814194578
0.28447557906821236,0.01259395363327512,1.258484298746235e-07,0.8797141765643766,0.11862211921746244,0.7115283786977437
0.28498987121837155,0.012613504628235244,1.2462173003464747e-07,0.8668941603545134,0.11592930176237215,0.7130548935583261
0.28550416336853074,0.012637018524071102,1.2364941171754623e-07,0.8553836557071719,0.11329761861871021,0.7148729590836532
0.28601845551868993,0.0126643080633213,1.2289722225560506e-07,0.8452750974756479,0.11072568187576716,0.716967972996997
0.2865327476688491,0.012695187810132784,1.2233770416431736e-07,0.8365207742211813,0.10821213513143443,0.7193261389042709
0.2870470398190083,0.012729480850175253,1.219488136733131e-07,0.8290185951535994,0.10575565277702685,0.7219345772190835
0.2875613319691675,0.012767020838113968,1.217128032388228e-07,0.8226487817886778,0.10335493929831033,0.7247813066724907
0.2880756241193267,0.012807652278638013,1.216153492408599e-07,0.8172902351347056,0.10100872859237299,0.7278551853475139
0.2885899162694859,0.012851230108252449,1.2164487668976977e-07,0.8128278250173065,0.09871578329998537,0.7311458411943421
0.28910420841964507,0.012897619010641131,1.2179203595300694e-07,0.8091554041124502,0.09647489415310201,0.7346436029087534
0.28961850056980426,0.01294669265242233,1.220492955455306e-07,0.8061767459440531,0.09428487933716546,0.7383394351567201
0.29013279271996345,0.012998332922456352,1.2241062356342676e-07,0.8038054695369521,0.09214458386787806,0.7422248794278665
0.29064708487012264,0.013052429211304114,1.2287123715286163e-07,0.8019644846497804,0.09005287898211532,0.7462920006949281
0.29116137702028183,0.013108877745548456,1.2342740456137227e-07,0.8005852325512833,0.0880086615426619,0.7505333396028542
0.291675669170441,0.013167580981124541,1.2407628814969898e-07,0.7996068652199488,0.08601085345645705,0.7549418697388788
0.2921899613206002,0.013228447054691242,1.2481581957852787e-07,0.7989754363708395,0.08405840110604391,0.7595109594877153
0.2927042534707594,0.013291389289681302,1.256446004890449e-07,0.7986431403865849,0.08215027479392377,0.7642343379847579
0.2932185456209186,0.013356325752665954,1.2656182356636515e-07,0.7985676149556854,0.08028546819952255,0.7691060647128468
0.2937328377710778,0.01342317885538622,1.2756721005462165e-07,0.7987113122272121,0.0784629978484839,0.7741205023296145
0.29424712992123697,0.01349187499788758,1.2866096068588477e-07,0.7990409374424038,0.0766819025940095,0.7792722923554836
0.29476142207139616,0.013562344248459639,1.2984371766738503e-07,0.7995269510414572,0.07494124310997317,0.7845563333936509
0.29527571422155535,0.013634520056426772,1.311165358973006e-07,0.8001431289070249,0.07324010139554168,0.7899677615914444
0.29579000637171454,0.013708338994204412,1.3248086198847602e-07,0.8008661749771959,0.0715775802910417,0.7955019330867458
0.29630429852187373,0.013783740525399334,1.3393852000110673e-07,0.8016753805286834,0.069952803004817,0.801154408213751
0.2968185906720329,0.013860666796076318,1.3549170304135357e-07,0.8025523247570717,0.06836491265082742,0.8069209372693771
0.2973328828221921,0.013939062446630167,1.3714297008924484e-07,0.8034806117274,0.06681307179674495,0.8127974476654002
0.2978471749723513,0.014018874441990119,1.3889524758835334e-07,0.8044456392566769,0.06529646202230964,0.8187800323123271
0.2983614671225105,0.01410005191814178,1.4075183547097372e-07,0.8054343957756057,0.06381428348771173,0.8248649390993004
0.2988757592726697,0.014182546043182167,1.427164174131594e-07,0.8064352816767416,0.06236575451177303,0.831048561350377
0.2993900514228289,0.014266309891328594,1.4479307521978096e-07,0.807437952078978,0.060950111159704945,0.8373274291515976
0.29990434357298806,0.014351298328483014,1.4698630733538526e-07,0.8084331783194715,0.059566606840225696,0.8436982014555522
0.30041863572314725,0.014437467908113897,1.493010515659792e-07,0.8094127258235858,0.058214511911824744,0.8501576588809574
0.30093292787330644,0.014524776776359195,1.5174271218327662e-07,0.8103692463033557,0.0568931132979664,0.8567026971342312
0.30144722002346563,0.014613184585378507,1.543171916694612e-07,0.8112961824980933,0.055601714111030105,0.8633303209883552
0.3019615121736248,0.014702652414092654,1.5703092745000618e-07,0.8121876839009201,0.05433963328478905,0.8700376387616275
0.302475804323784,0.014793142695545825,1.5989093405738596e-07,0.8130385321156517,0.05310620521523316,0.8768218572453297
0.3029900964739432,0.01488461915021078,1.6290485127257132e-07,0.8138440746630432,0.05190077940954755,0.8836802770349825
0.3035043886241024,0.014977046724633491,1.660809989072445e-07,0.8146001662071758,0.0507227201430612,0.8906102882248741
0.3040186807742616,0.015070391534879525,1.6942843902130294e-07,0.8153031163045741,0.04957140612398502,0.8976093664299071
0.3045329729244208,0.015164620814303871,1.7295704652161667e-07,0.8159496428930985,0.04844623016576267,0.9046750691027272
0.30504726507457997,0.015259702865217491,1.7667758926411126e-07,0.8165368308370541,0.04734659886686152,0.9118050321175126
0.30556155722473916,0.015355607014070136,1.8060181898797557e-07,0.8170620949312665,0.04627193229783521,0.9189969665948557
0.30607584937489835,0.015452303569809367,1.8474257465537678e-07,0.8175231468418666,0.0452216636954926,0.9262486559448517
0.30659014152505754,0.015549763785112072,1.891139000613595e-07,0.8179179655266966,0.04419523916401243,0.9335579531079081
0.3071044336752167,0.015647959820216585,1.937311779276283e-07,0.8182447707349769,0.04319211738284607,0.94092277797491
0.3076187258253759,0.015746864709111942,1.9861128311439865e-07,0.8185019992351873,0.042211769321254665,0.9483411149702602
0.3081330179755351,0.01584645232786606,2.037727580937412e-07,0.8186882834630976,0.04125367795933072,0.9558110107829947
0.3086473101256943,0.01594669736489708,2.0923601444771274e-07,0.8188024323193607,0.04031733801535719,0.9633305722326749
0.3091616022758535,0.016047575293012026,2.1502356491289896e-07,0.8188434138787299,0.039402255679360725,0.9708979642580856
0.3096758944260127,0.016149062343054764,2.2116029142546738e-07,0.8188103398015024,0.03850794835271936,0.9785114080179607
0.31019018657617187,0.016251135479021305,2.2767375577339263e-07,0.8187024512627273,0.0376339443936879,0.9861691790940386
0.31070447872633106,0.016353772374503903,2.345945608920143e-07,0.8185191060742822,0.036779782868707665,0.9938696057876781
0.31121877087649025,0.01645695138921616,2.419567718216601e-07,0.8182597496692722,0.0359450133093702,1.0016110675000642
0.31173306302664944,0.016560651540752976,2.497984058493257e-07,0.8179238359083703,0.03512919547490843,1.0093919929968376
0.3122473551768086,0.016664852491488347,2.5816201461443064e-07,0.817510974546036,0.03433189912009077,1.0172108587149555
0.3127616473269678,0.016769534532307312,2.6709537387005403e-07,0.8170208912360527,0.033552703768398064,1.025066187735623
0.313275939477127,0.01687467856250989,2.766523000011313e-07,0.8164533804126968,0.03279119849036559,1.0329565485043704
0.3137902316272862,0.016980266072246866,2.8689362455832554e-07,0.8158082982425637,0.032046981686975944,1.0408805535476904
0.3143045237774454,0.01708627912568924,2.9788836385560923e-07,0.8150855562102988,0.03131966087799152,1.0488368582415488
0.3148188159276046,0.017192700344874946,3.0971513068661487e-07,0.814285115276823,0.030608852495119028,1.0568241596278487
0.31533310807776377,0.017299512894181537,3.224638486527015e-07,0.8134069805553792,0.029914181679901786,1.0648411952752916
0.31584740022792296,0.01740670046537866,3.362378475097735e-07,0.8124511964566115,0.029235282086239354,1.0728867421814183
0.31636169237808215,0.01751424726321833,3.511564420515747e-07,0.8114178422591236,0.028571795687438024,1.080959615712913
0.31687598452824134,0.017622138006813583,3.6735812983139483e-07,0.8103072647047721,0.027923372587700453,1.0890586685815093
