Time [s],Lmtc [m],STIM [ ],Fsee [N],Gamma [ ],Lcerel [ ]
0.0,0.02259404049918201,0.9999983386443838,1.4235664218270476,0.09316175895310018,1.4594810592185135
0.008683968160060701,0.022425324292980983,0.999993688896302,2.9470437478703024,0.264192488896181,1.4422559758922286
0.017367936320121402,0.022224261607140562,0.999988129513591,3.740610034621389,0.4029656914288196,1.425276090476963
0.026051904480182103,0.02203966054897802,0.9999833557636228,4.399484069705207,0.5155650127213379,1.4100017852414706
0.034735872640242804,0.021868393560345596,0.9999797241859043,4.986599793004911,0.6069270339396408,1.3959708129008033
0.043419840800303505,0.02170720155763554,0.9999771669663233,5.522006454935142,0.6810573569304063,1.382859241094605
0.052103808960364206,0.021553852706529993,0.9999755002195025,6.0163974493825725,0.7412061082747466,1.3704572047475143
0.06078777712042491,0.021406805371029815,0.9999745311227642,6.476673913589528,0.7900104011578107,1.3586225050298455
0.06947174528048561,0.021264953220993966,0.999974091380821,6.907713461892861,0.8296099489229612,1.34725409810867
0.07815571344054631,0.02112747278046983,0.9999740441724896,7.313155358227126,0.861740880048822,1.336277257168959
0.08683968160060701,0.020993731761663293,0.999974282042165,7.695817565723591,0.887811860792033,1.325634885655625
0.09552364976066771,0.0208632319049969,0.9999747222258399,8.057943217712177,0.9089658605885091,1.3152821743872605
0.10420761792072841,0.02073557192354294,0.9999753017735976,8.401356937651775,0.9261302675264903,1.3051831665234581
0.11289158608078911,0.02061042261178424,0.9999759732516806,8.727569157163739,0.9400575510468167,1.2953084631792384
0.12157555424084981,0.020487509594560353,0.999976701204868,9.037848498763823,0.9513582547867656,1.285633639988767
0.13025952240091052,0.02036660104077036,0.9999774593404235,9.333273591239172,0.9605277662571918,1.2761381231810112
0.13894349056097122,0.02024749870240852,0.9999782283268084,9.614771129374736,0.9679680371875713,1.2668043721848865
0.14762745872103192,0.020130031241235198,0.9999789940909558,9.883144444427058,0.9740052069664524,1.257617272426871
0.15631142688109262,0.020014049166856444,0.99997974650947,10.139095355846825,0.9789039019536422,1.2485636757882297
0.16499539504115332,0.019899420933923738,0.999980478406417,10.383241158574654,0.9828788376739784,1.2396320470293307
0.17367936320121402,0.019786029888821624,0.9999811847874462,10.616128019455868,0.9861042326310524,1.2308121877143128
0.18236333136127472,0.019673771849399894,0.9999818622540787,10.838241677204563,0.9887214465172611,1.2220950177826093
0.19104729952133542,0.01956255316358121,0.9999825085352767,11.050016086512807,0.9908451777399138,1.213472400654904
0.19973126768139612,0.019452289135151575,0.9999831218746197,11.251840473122753,0.9925684921159934,1.2049370016683911
0.20841523584145683,0.01934290273455787,0.9999836990072942,11.444065145326583,0.9939669046090895,1.1964821723461077
0.21709920400151753,0.019234323533395017,0.9999842288741999,11.627006321372955,0.9951017015803545,1.18810185491645
0.22578317216157823,0.019126486816228323,0.9999846819321224,11.800950171600142,0.9960226743172682,1.1797905028662845
0.23446714032163893,0.019019332834266718,0.9999850055352514,11.966156231244804,0.9967704079591712,1.1715430143013974
0.24315110848169963,0.01891280617338371,0.9999851412124056,12.122860303880946,0.9973781786817852,1.1633546756201547
0.2518350766417603,0.018806855215005094,0.9999850666574046,12.271276938441275,0.9978733902105086,1.1552211135691288
0.260519044801821,0.018701431673165816,0.9999848448059825,12.411601533890273,0.9982784829721992,1.1471382541919712
0.26920301296188165,0.018596490194852426,0.9999846398568922,12.544012119483538,0.9986114269541244,1.139102287512177
0.2778869811219423,0.01849198801345985,0.9999846477290479,12.668670870128283,0.9988860924232503,1.1311096370073939
0.286570949282003,0.01838788464680458,0.9999849615826101,12.785725424749456,0.9991127959040159,1.1231569330661606
0.29525491744206367,0.01828414163206744,0.9999855133545991,12.895310065862395,0.9992991292148757,1.1152409897177016
0.30393888560212434,0.018180722290876992,0.9999861553227355,12.997546790686645,0.9994509283143089,1.1073587840358858
0.312622853762185,0.01807759151889657,0.9999867645413806,13.092546272577401,0.9995731031377166,1.099507437752959
0.3213068219222457,0.017974715595744005,0.9999872775720536,13.180408698020852,0.9996701271446246,1.0916842007519116
0.32999079008230636,0.017872059565248493,0.9999876754308203,13.261071244606487,0.9997461863425251,1.0838864361996667
0.33867475824236704,0.017769583292403687,0.9999879608199271,13.334068844513867,0.9998051293683176,1.0761116071245744
0.3473587264024277,0.01766725562678162,0.999988143874426,13.39943080597804,0.9998503686613925,1.0683572642515407
0.3560426945624884,0.017565046949943982,0.9999882362106851,13.457226505060689,0.9998848170461916,1.0606210349130578
0.36472666272254906,0.017462928266720266,0.9999882497260918,13.507516563850958,0.9999108805358362,1.0529006128664091
0.37341063088260973,0.017360871093016914,0.9999881975626873,13.550353211885334,0.9999304954335702,1.0451937488656484
0.3820945990426704,0.01725884734985136,0.9999880957382357,13.585780596437877,0.9999451898070488,1.0374982418567384
0.3907785672027311,0.017156829262265944,0.9999879643836138,13.613835044726127,0.9999561528189835,1.0298119306820352
0.39946253536279175,0.017054789261934787,0.9999878275941616,13.63454528039935,0.9999643014208784,1.0221326861947702
0.4081465035228524,0.016952699892398435,0.9999877111674148,13.647932596280496,0.9999703389290356,1.0144584036953241
0.4168304716829131,0.016850533715543972,0.9999876384124747,13.654010959409785,0.999974803312887,1.0067869956093038
0.42551443984297377,0.01674826426608925,0.9999876256246363,13.652853671261019,0.9999781050806408,0.9991163842639675
0.43419840800303444,0.01664586379232688,0.9999876795780062,13.644293849388188,0.9999805560156625,0.9914446859957667
0.4428823761630951,0.016543310729024,0.9999877978025538,13.62813082816005,0.9999823908684965,0.9837705284195859
0.4515663443231558,0.016440587653062257,0.9999879710872274,13.60435481857278,0.9999837841005957,0.9760926320772413
0.46025031248321646,0.016337676857614194,0.9999881870110695,13.572951395088248,0.9999848632824331,0.9684097093836642
0.46893428064327713,0.016234560312925337,0.9999884329163862,13.533901459905014,0.9999857201328692,0.9607204618995963
0.4776182488033378,0.016131219625179723,0.9999886976879215,13.487181191638255,0.9999864195829552,0.9530235775377662
0.4863022169633985,0.01602763599316701,0.9999889724477456,13.4327619779259,0.9999870070186738,0.9453177276851586
0.49498618512345915,0.01592379016244212,0.9999892505558992,13.370610331339664,0.9999875138658404,0.9376015642230323
0.5036701532835198,0.015819662376636436,0.999989527282347,13.300687787854796,0.9999879617509001,0.9298737164251343
0.5123541214435805,0.015715232325541437,0.9999897993874985,13.222950786996378,0.999988365512263,0.9221327877130102
0.5210380896036412,0.015610479089540876,0.9999900647306438,13.137350532621157,0.9999887353309784,0.9143773522454651
0.5297220577637018,0.015505381079915032,0.9999903219501587,13.043832833108553,0.999989078213019,0.9066059513170086
0.5384060259237625,0.015399915974478793,0.9999905702206351,12.942337919521764,0.9999893990078678,0.8988170895375182
0.5470899940838232,0.015294060647943782,0.9999908090763087,12.832800240059305,0.9999897011023258,0.8910092307623223
0.5557739622438839,0.015187791096309917,0.9999910382861197,12.715148228843837,0.9999899868901279,0.8831807937383245
0.5644579304039445,0.015081082354493335,0.9999912577667419,12.589304046786337,0.9999902580883882,0.875330147427668
0.5731418985640052,0.014973908406280424,0.999991467522527,12.455183291910124,0.9999905159500794,0.8674556059655594
0.5818258667240659,0.014866242085559728,0.9999916676040321,12.312694676114887,0.9999907614062782,0.8595554232031934
0.5905098348841266,0.014758054967619167,0.9999918580790852,12.161739664893794,0.9999909951610578,0.8516277867800439
0.5991938030441872,0.014649317249099812,0.999992039012087,12.002212075975534,0.9999912177544582,0.8436708116619209
0.6078777712042479,0.014539997614962642,0.9999922104485004,11.833997632232055,0.9999914296038899,0.8356825330719555
0.6165617393643086,0.01443006309054105,0.99999237240234,11.656973463453424,0.9999916310308656,0.8276608987306853
0.6252457075243693,0.014319478876409114,0.9999925248450315,11.471007550721172,0.9999918222776112,0.8196037603084454
0.6339296756844299,0.014208208163377832,0.9999926676943386,11.275958106082388,0.9999920035165294,0.8115088639777815
0.6426136438444906,0.014096211924419465,0.9999928008021899,11.071672879003705,0.9999921748543583,0.8033738399350902
0.6512976120045513,0.013983448679689519,0.9999929239402187,10.857988379624148,0.9999923363321246,0.795196190738521
0.659981580164612,0.013869874230032275,0.9999930367816228,10.634729007073297,0.9999924879213783,0.7869732782823945
0.6686655483246726,0.013755441353376701,0.9999931388775409,10.401706069007776,0.999992629516718,0.778702309196028
0.6773495164847333,0.013640099457194497,0.999993229625438,10.158716675956049,0.999992760924153,0.7703803184154252
0.686033484644794,0.013523794178622525,0.9999933082258317,9.905542490936838,0.9999928818443098,0.7620041506281046
0.6947174528048546,0.013406466921836866,0.9999933736218239,9.641948310984473,0.9999929918488082,0.753570439232046
0.7034014209649153,0.01328805431965337,0.9999934244128181,9.367680452486242,0.9999930903471285,0.7450755823764024
0.712085389124976,0.01316848760290415,0.9999934587286394,9.0824649063658,0.9999931765397668,0.7365157155603195
0.7207693572850367,0.013047691856592478,0.9999934740413687,8.786005221805244,0.9999932493509981,0.7278866801517684
0.7294533254450973,0.012925585135711569,0.9999934668763132,8.477980067954457,0.9999933073304308,0.7191839870438933
0.738137293605158,0.012802077405258206,0.9999934323540861,8.158040411342965,0.9999933485053796,0.7104027744826658
0.7468212617652187,0.012677069257373073,0.9999933634385731,7.825806231697763,0.9999933701531597,0.7015377588641714
0.7555052299252794,0.012550450342131928,0.9999932496482294,7.480862679490588,0.9999933684380516,0.692583176995261
0.76418919808534,0.012422097424816762,0.9999930747310296,7.1227555532835805,0.9999933378093252,0.6835327179137397
0.7728731662454007,0.012291871947462344,0.9999928121926974,6.750985941693603,0.9999932699544323,0.6743794418400619
0.7815571344054614,0.012159616919276374,0.9999924159639988,6.365003830534078,0.9999931518678473,0.665115683133851
0.790241102565522,0.012025152877253307,0.9999917986992547,5.964200416055015,0.9999929620083033,0.6557329331865522
0.7989250707255827,0.0118882725232734,0.9999907731428258,5.54789878376925,0.9999926618420605,0.6462216978953582
0.8076090388856434,0.011748733415930294,0.9999888538756042,5.115342499616121,0.9999921744157884,0.636571322584127
0.8162930070457041,0.011606247691388396,0.9999842729443166,4.665681504073867,0.9999913171813802,0.6267697747427675
0.8249769752057647,0.011460467033826891,0.9999613815960255,4.19795459638893,0.9999894971098411,0.6168033714410255
0.8336609433658254,0.01131192690127608,1.2032303082235654e-05,3.7431771160633516,0.9999821987638778,0.6066564340187139
0.8423449115258861,0.0111545103976237,1.6638739323889327e-06,3.0597296003902197,0.6785697228489009,0.5964662730507879
0.8510288796859468,0.01099113161238031,4.970949057621625e-07,2.1553709116983883,0.46046400916009383,0.5866627458491106
0.8597128478460074,0.010836329737853551,2.3105768356440817e-07,1.2647899205126936,0.3124626104001656,0.5780471122724835
0.8683968160060681,0.010729768327674036,1.1670485968737658e-06,0.6158319797324711,0.2120325170754545,0.5730188465001772
0.8697128478460074,0.010722850267229637,1.0998826414757863e-06,0.5260210844524994,0.1999322891288971,0.5730188465001761
0.8710288796859468,0.0107187334419944,1.0370310566502452e-06,0.47579019092863684,0.1885226270315656,0.5730197551725232
0.8723449115258861,0.010717279143260277,9.790414202227601e-07,0.45194817037093665,0.17776411988459617,0.5730633971223132
0.8736609433658254,0.010719221188438075,9.283694091376588e-07,0.4524424957333467,0.16761960603187995,0.5732058769483542
0.8749769752057648,0.010725234339796618,8.91042979756631e-07,0.44406178247933276,0.15805404480287746,0.5737115801588896
0.8762930070457041,0.010742850496177242,8.686256025254849e-07,0.4267602005856259,0.1490343956701468,0.5751474970796774
0.8776090388856435,0.010773275842940532,8.572886285114789e-07,0.4131478322356219,0.1405295038447888,0.5775215711937179
0.8789250707255828,0.010815166218777443,8.54064121744519e-07,0.40377618602808635,0.13250999234811156,0.5807280500608336
0.8802411025655221,0.01086718197705605,8.572099115515819e-07,0.39771143543364407,0.12494816059970174,0.5846719294581344
0.8815571344054615,0.010928170857748493,8.657038592561194e-07,0.394040711044492,0.11781788881398922,0.5892726037759383
0.8828731662454008,0.010997152820242915,8.789471617840565e-07,0.39206062480665954,0.11109454782411417,0.5944612236300479
0.8841891980853401,0.011073287072461496,8.966015221641907e-07,0.39126175281291564,0.10475491403528522,0.6001781787240826
0.8855052299252795,0.011155843414715969,9.184977383681996e-07,0.3912838486844543,0.09877708922252519,0.6063711783551954
0.8868212617652188,0.01124418018202747,9.445829502604093e-07,0.3918751146520104,0.09314042490040621,0.6129938416362225
0.8881372936051581,0.011337727798452976,9.748895366328163e-07,0.39286076869782466,0.08782545100605467,0.6200046659541332
0.8894533254450975,0.011435976585394145,1.0095165709974908e-06,0.3941200493952069,0.08281380865049812,0.6273662660799505
0.8907693572850368,0.01153846766635964,1.0486188182200474e-06,0.3955697627188752,0.07808818670688908,0.6350448044722047
0.8920853891249761,0.011644786086046731,1.0924004222912353e-06,0.39715263760076885,0.07363226201706086,0.6430095559535923
0.8934014209649155,0.01175455550006883,1.141111628164826e-06,0.3988291398897253,0.06943064301018355,0.6512325666908746
0.8947174528048548,0.011867433975686688,1.195047556439407e-06,0.40057174938808876,0.06546881653896056,0.6596883794531313
0.8960334846447942,0.011983110579575717,1.2545484432050405e-06,0.40236098269381015,0.06173309774985684,0.6683538056793434
0.8973495164847335,0.012101302526452782,1.3200009925151882e-06,0.404182649813265,0.05821058281428609,0.6772077309218627
0.8986655483246728,0.012221752731945272,1.3918406331514045e-06,0.40602598035316995,0.05488910435754476,0.6862309444671097
0.8999815801646122,0.012344227662103687,1.4705545623598087e-06,0.4078823605421735,0.051757189431580794,0.6954059868893369
0.9012976120045515,0.012468515406224796,1.5566855186709941e-06,0.409744497284179,0.04880401988646395,0.7047170113403631
0.9026136438444908,0.012594423923408649,1.650836266427686e-06,0.4116058787161038,0.046019395003703195,0.7141496557839769
0.9039296756844302,0.012721779429584523,1.7536748038095276e-06,0.4134604386547025,0.04339369626236664,0.7236909243377325
0.9052457075243695,0.01285042490280967,1.8659403285925774e-06,0.4153023593483607,0.040917854116324315,0.7333290765222895
0.9065617393643088,0.012980218692040909,1.9884500145156375e-06,0.41712596625705783,0.03858331666788069,0.7430535236353091
0.9078777712042482,0.013111033219423321,2.122106667823476e-06,0.41892568239147704,0.0363820201296148,0.7528547317316573
0.9091938030441875,0.013242753769226796,2.267907349581865e-06,0.4206960196210603,0.034306360972423726,0.7627241308527292
0.9105098348841268,0.013375277358453433,2.4269530656095496e-06,0.4224315914232898,0.03234916966359155,0.7726540302394034
0.9118258667240662,0.013508511685234228,2.600459643032574e-06,0.42412713658407414,0.03050368590420078,0.7826375393095908
0.9131418985640055,0.013642374151709503,2.7897699311044737e-06,0.4257775469373836,0.02876353528038517,0.792668494199317
0.9144579304039449,0.013776790958338546,2.9963674845638084e-06,0.4273778947570826,0.027122707247810598,0.802741389667413
0.9157739622438842,0.013911696266642412,3.2218919109179797e-06,0.4289234571780283,0.02557553437337992,0.8128513161560255
0.9170899940838235,0.014047031427339452,3.4681560891668705e-06,0.43040973623873435,0.02411667276250651,0.8229939017874838
0.9184060259237629,0.014182744270745572,3.7371654971714853e-06,0.43183247395825586,0.022741083604401347,0.8331652590659515
0.9197220577637022,0.014318788456217472,4.031139918754596e-06,0.43318766239749273,0.02144401577168849,0.8433619360417023
0.9210380896036415,0.014455122877340595,4.352537840398345e-06,0.4344715489916764,0.02022098941431319,0.8535808716879735
0.9223541214435809,0.014591711119515594,4.704083891887306e-06,0.4356806376360677,0.019067780491151112,0.8638193552355763
0.9236701532835202,0.014728520966584401,5.088799736368236e-06,0.4368116861043618,0.017980406185977026,0.8740749892089721
0.9249861851234595,0.014865523953158424,5.510038874142719e-06,0.4378617004105897,0.01695511115751872,0.8843456559090627
0.9263022169633989,0.01500269495936691,5.9715258923355045e-06,0.4388279267132313,0.015988354576217636,0.8946294870922987
0.9276182488033382,0.015140011844827514,6.47740077085572e-06,0.43970784132122065,0.015076797903051888,0.9049248366023896
0.9289342806432775,0.01527745511875021,7.032268945496803e-06,0.4404991393071004,0.01421729336836017,0.9152302557195191
0.9302503124832169,0.015415007643214428,7.64125793357485e-06,0.4411997221708383,0.013406873111045707,0.9255444710021237
0.9315663443231562,0.015552654366802962,8.310081448417853e-06,0.4418076849342961,0.012642738940846632,0.9358663644075333
0.9328823761630956,0.01569038208593062,9.045112068696702e-06,0.44232130298459976,0.011922252688542497,0.9461949554898135
0.9341984080030349,0.01582817923136616,9.853463689331908e-06,0.44273901892698725,0.011242927111035188,0.9565293854856036
0.9355144398429742,0.01596603567761018,1.0743085164046708e-05,0.44305942965539546,0.010602417320206229,0.9668689031114175
0.9368304716829136,0.01610394257295551,1.1722866755046077e-05,0.4432812738026513,0.009998512706325525,0.9772128519084852
0.9381465035228529,0.016241892188218317,1.2802761228096475e-05,0.4434034196918276,0.009429129328585953,0.9875606589836057
0.9394625353627922,0.016379877781445187,1.3993921569366195e-05,0.4434248442521864,0.008892302747089296,0.9979118250065306
0.9407785672027316,0.016517893463813035,1.530885618861706e-05,0.44334450126923025,0.008386181272339864,1.0082659150210254
0.9420945990426709,0.016655934076153105,1.6761604960529555e-05,0.443161402754998,0.007909019609981898,1.0186225486564842
0.9434106308826102,0.01679399513043392,1.836794152451113e-05,0.4428748241527127,0.007459172880396485,1.0289813944004573
0.9447266627225496,0.01693207272556606,2.0145600733055326e-05,0.4424841252972294,0.007035090994850452,1.0393421644613043
0.9460426945624889,0.01707016347402972,2.2114533708860417e-05,0.44198873750056245,0.0066353133716614615,1.04970460935394
0.9473587264024282,0.01720826443741017,2.4297192284663718e-05,0.4413881561886558,0.006258463977849996,1.0600685131172312
0.9486747582423676,0.01734637306959451,2.6718843488965483e-05,0.4406819341700399,0.005903246683605051,1.0704336891018718
0.9499907900823069,0.01748448716677079,2.940791384197328e-05,0.43986967550425365,0.005568440918374931,1.08079997626461
0.9513068219222462,0.01762260770669641,3.239636237164084e-05,0.438983876343875,0.005252897618280138,1.0911672359112832
0.9526228537621856,0.017760811658948085,3.572008070646219e-05,0.4389192109244959,0.004955535454596251,1.1015353488371187
0.9539388856021249,0.01789913295018861,3.9419318692443654e-05,0.44007793694628955,0.004675337332120466,1.111904212818264
0.9552549174420643,0.01803756999277676,4.3539135132925565e-05,0.4424600658189715,0.004411347144314789,1.1222737404134502
0.9565709492820036,0.01817612093165612,4.812987593928366e-05,0.4460655993660932,0.004162666769408552,1.1326438570392061
0.9578869811219429,0.018314783639809415,5.3247686735258876e-05,0.4508945336327539,0.003928453288545166,1.1430144992860825
