Time [s],Lmtc [m],STIM [ ],Fsee [N],Gamma [ ],Lcerel [ ]
0.0,0.018318740825410757,0.9999998208686098,0.52162094543326,0.057713019383895975,1.1428685580058853
0.0011183895569205236,0.018370792421679497,0.9999998258912672,1.3682813054030316,0.08273745160899576,1.1428685580000393
0.002236779113841047,0.01842673975773944,0.9999998307804131,2.7249126590272583,0.1070973068905229,1.1428685550726876
0.003355168670761571,0.018462161490661183,0.9999998286914412,3.823054344281257,0.1308102344806112,1.142868540604039
0.004473558227682094,0.01847873617647689,0.9999998137666215,4.729796127704866,0.15389341473615595,1.1421962346329
0.005591947784602618,0.01848185585750739,0.9999997883311144,5.516581085430195,0.17636357159753357,1.1409125962172841
0.006710337341523142,0.018475091103693945,0.9999997546211756,6.167818075972196,0.19823698492702616,1.139229169731189
0.007828726898443664,0.018461120912746112,0.9999997138747186,6.691969394265649,0.21952950229989965,1.1372791456268196
0.008947116455364189,0.01844192809543769,0.9999996669653128,7.108852471125995,0.24025655045819277,1.1351468893209737
0.010065506012284713,0.018418949067631418,0.9999996146077202,7.440300494021299,0.26043314647716376,1.1328868855032403
0.011183895569205238,0.018393208801650872,0.9999995574309515,7.705672621816568,0.28007390864064696,1.1305351853176668
0.012302285126125762,0.018365435081411967,0.9999994960043131,7.920562088743775,0.29919306702952986,1.1281162601092116
0.013420674683046287,0.01833614614364619,0.9999994308461742,8.096957929372262,0.31780447382972427,1.1256471372273122
0.014539064239966811,0.01830571390970442,0.9999993624266734,8.243879651849072,0.3359216133666188,1.1231399401472784
0.015657453796887336,0.018274408159607937,0.9999992911686981,8.368057199737859,0.35355761187311724,1.1206034832160976
0.01677584335380786,0.01824242696216067,0.9999992174487355,8.474509631638153,0.37072524699829285,1.1180442963918233
0.017894232910728385,0.018209917574921033,0.9999991415981055,8.566994919744385,0.3874369570635405,1.1154672989727872
0.01901262246764891,0.01817699085142527,0.9999990639046384,8.648345205686912,0.4037048500729473,1.1128762523393279
0.020131012024569434,0.018143731248394884,0.9999989846147064,8.720711867502999,0.41954071248441716,1.110274070492804
0.021249401581489958,0.01811020384537474,0.999998903935471,8.785743306387051,0.434956017747912,1.1076630371505167
0.022367791138410482,0.0180764593232155,0.9999988220372191,8.844713812827223,0.44996193461700396,1.1050449602096792
0.023486180695331007,0.01804253753582973,0.9999987390556743,8.898617261212804,0.4645693352397574,1.102421283448443
0.02460457025225153,0.01800847010263867,0.9999986550942006,8.948235601968394,0.478788803034801,1.09979316852142
0.025722959809172056,0.017974282311881015,0.9999985702258373,8.994189270649395,0.49263064035829385,1.0971615559866774
0.02684134936609258,0.017939994533604297,0.9999984844951151,9.036974568649375,0.5061048759673328,1.0945272113094247
0.027959738923013105,0.017905623279944438,0.9999983979196279,9.076991602598707,0.5192212722851998,1.0918907599520453
0.02907812847993363,0.017871182008929887,0.9999983104913328,9.114565335234998,0.5319893324737089,1.0892527144333266
0.030196518036854154,0.0178366811378475,0.9999982221775662,9.149930263356952,0.5444183073177655,1.0866134954070643
0.03131490759377468,0.017802128689793986,0.9999981329217588,9.183251285724559,0.5565172019271188,1.0839734482368855
0.0324332971506952,0.01776753211721385,0.9999980426438413,9.214708818642784,0.5682947822601542,1.0813328561439401
0.03355168670761572,0.017732897588884473,0.9999979512403218,9.244454104648545,0.5797595814744412,1.0786919507212303
0.03467007626453624,0.017698230202585853,0.9999978585840199,9.272614006594788,0.5909199061086344,1.0760509204059836
0.03578846582145676,0.017663534169272254,0.9999977645234346,9.29929552515122,0.601783842100191,1.0734099173550569
0.03690685537837728,0.017628812961097466,0.9999976688817137,9.324589381791323,0.6123592606432608,1.0707690630613376
0.038025244935297804,0.01759406943118092,0.9999975714551885,9.348572878511726,0.6226538238909773,1.0681284529700545
0.039143634492218325,0.017559305911119535,0.9999974720114198,9.371312194065771,0.6326749905062755,1.0654881602950104
0.040262024049138846,0.017524524290852092,0.9999973702866924,9.392864238393514,0.6424300210652434,1.0628482391904206
0.04138041360605937,0.01748972608443679,0.9999972659828755,9.413278158528335,0.6519259833169081,1.060208727400472
0.04249880316297989,0.01745491248451312,0.99999715876354,9.43259656794581,0.6611697573032576,1.0575696484830153
0.04361719271990041,0.0174200844076194,0.9999970482492041,9.450856555218861,0.6701680403431809,1.0549310136840362
0.04473558227682093,0.017385242532078394,0.9999969340115319,9.468090515602533,0.6789273518839278,1.052292823524209
0.04585397183374145,0.017350387329809428,0.9999968155662724,9.484326839807965,0.6874540382235695,1.0496550691468551
0.04697236139066197,0.017315519093151405,0.9999966923646607,9.499590487020386,0.695754277107861,1.0470177334672168
0.04809075094758249,0.017280637957566795,0.9999965637829252,9.513903463639208,0.703834082204792,1.0443807921555102
0.049209140504503014,0.01724574392092881,0.9999964291094463,9.527285224878455,0.7116993074600295,1.0417442144803046
0.050327530061423535,0.017210836859961047,0.9999962875289647,9.5397530129701,0.7193556513363514,1.0391079640340262
0.051445919618344056,0.01717591654429383,0.9999961381030638,9.551322143041913,0.726808660940073,1.0364719993585942
0.05256430917526458,0.017140982648517055,0.9999959797458883,9.562006245630418,0.7340637360373702,1.0338362744861027
0.0536826987321851,0.017106034762542167,0.9999958111937233,9.571817473112636,0.7411261329632951,1.0312007394069689
0.05480108828910562,0.017071072400531427,0.9999956309665717,9.580766676002368,0.7480009684261697,1.0285653404759316
0.05591947784602614,0.017036095008608518,0.9999954373191937,9.58886355398421,0.7546932232099295,1.025930020764605
0.05703786740294666,0.0170011019715289,0.9999952281781005,9.596116785694951,0.7612077457768395,1.023294720367921
0.05815625695986718,0.016966092618458824,0.9999950010595932,9.602534140564313,0.7675492557728609,1.0206593766706566
0.0592746465167877,0.016931066227988095,0.9999947529618674,9.608122575460149,0.7737223474377491,1.0180239245792928
0.060393036073708224,0.01689602203248179,0.9999944802210988,9.612888318421682,0.7797314929217227,1.0153882967236754
0.061511425630628745,0.016860959221859838,0.9999941783166806,9.616836941386659,0.78558104551023,1.0127524236322858
0.06262981518754927,0.0168258769468796,0.9999938416033575,9.619973423508387,0.7912752427579021,1.0101162338843686
0.0637482047444698,0.0167907743219856,0.9999934629361352,9.622302206402841,0.7968182095321646,1.0074796542417213
0.06486659430139032,0.01675565042778073,0.999993033134326,9.623827242455079,0.8022139609660585,1.0048426097625351
0.06598498385831084,0.016720504311256396,0.9999925401980652,9.624551935291777,0.8074664053184071,1.0022050238993652
0.06710337341523136,0.01668533533887199,0.9999919681346149,9.624497949018727,0.8125793467372213,0.9995668185320905
0.06822176297215188,0.016650141709387466,0.9999912951522144,9.623618442550447,0.8175564879185454,0.996927924421801
0.0693401525290724,0.01661492197819328,0.9999904907601538,9.621868979306992,0.8224014326467254,0.994288295857043
0.07045854208599292,0.01657967560459891,0.9999895109291937,9.61925160522238,0.8271176881902041,0.9916478897324241
0.07157693164291344,0.016544402025259572,0.9999882896307127,9.615768095467743,0.8317086675051657,0.9890066617882021
0.07269532119983396,0.016509100655324654,0.999986723126302,9.611419974154991,0.8361776911559614,0.9863645666681776
0.07381371075675448,0.016473770889448933,0.9999846385513111,9.606208531690813,0.8405279887673209,0.9837215579709263
0.074932100313675,0.01643841210267964,0.9999817248111899,9.600134839962434,0.8447626996036703,0.9810775882950711
0.07605048987059553,0.01640302365122925,0.9999773598654205,9.59319976539372,0.8488848712978898,0.9784326092792702
0.07716887942751605,0.01636760487313939,0.9999700927704537,9.585403979639047,0.8528974540270332,0.9757865716376384
0.07828726898443657,0.016332155088839586,0.9999555731389097,9.576747967359458,0.8568032810874125,0.973139425191661
0.07940565854135709,0.01629667360176302,0.9999120778791634,9.567232037782201,0.8606049949984803,0.9704911189013151
0.08052404809827761,0.016261164974147743,0.8549630542252286,9.557136733675996,0.8643045912047808,0.9678416009106668
0.08164243765519813,0.016225654275783683,4.356649221918694e-05,9.54773243447211,0.8638496130172089,0.9651909594188894
0.08276082721211865,0.01618979814053222,1.9334731804799157e-05,9.519615666565022,0.8217720201025653,0.9625408578425975
0.08387921676903917,0.016153901407353316,1.1290895701520038e-05,9.487683274147754,0.7817429480485606,0.9598931733935911
0.0849976063259597,0.016117961353108813,7.3831302669000555e-06,9.451428424008022,0.7436633969986033,0.9572484486480699
0.08611599588288021,0.016081975126122895,5.135047175602847e-06,9.41026727699118,0.7074386025493168,0.9546073357920789
0.08723438543980074,0.016045939812355508,3.71235360846276e-06,9.363531166953674,0.6729782958707693,0.9519706160586162
0.08835277499672126,0.01600985254172501,2.7557365484004515e-06,9.310459346622501,0.6401965647058668,0.9493392224143329
0.08947116455364178,0.01597371065448,2.085274999550511e-06,9.250193187869383,0.6090116642883455,0.946714265995753
0.0905895541105623,0.01593751195135333,1.6011467411949699e-06,9.181772922785465,0.579345823072754,0.9440970668318386
0.09170794366748282,0.01590125505782594,1.2437019633424153e-06,9.104138339870573,0.5511250530910309,0.9414891894310274
0.09282633322440334,0.015864939940528837,9.752445992599081e-07,9.016135214791591,0.5242789676021825,0.9388924838421571
0.09394472278132386,0.015828568621973342,7.708954581395586e-07,8.91652960936649,0.49874060673721876,0.9363091328108494
0.09506311233824438,0.015792146147391568,6.136602603410023e-07,8.804032442165184,0.4744462711922718,0.9337417056344651
0.0961815018951649,0.01575568186278886,4.916055667892427e-07,8.677336808009192,0.45133536378267713,0.9311932192542217
0.09729989145208542,0.01571919106380783,3.961614132716971e-07,8.535170249498378,0.42935023857777593,0.9286672069922547
0.09841828100900595,0.015682697067238502,3.210589876093602e-07,8.376363378516402,0.4084360573020396,0.9261677951183067
0.09953667056592647,0.015646233736872902,2.616425757560539e-07,8.199934727366939,0.38854065267949867,0.9236997870832648
0.10065506012284699,0.015609848458788184,2.1441066358332408e-07,8.005189357984126,0.3696143984014751,0.921268754747325
0.10177344967976751,0.015573605505204252,1.7670205088642349e-07,7.791825608570645,0.3516100854061494,0.9188811352183487
0.10289183923668803,0.015537589651096504,1.4647641242198187e-07,7.560040708789038,0.3344828041695577,0.9165443309633483
0.10401022879360855,0.015501909819397312,1.2215795088375217e-07,7.310622495703858,0.3181898327197894,0.9142668096412975
0.10512861835052907,0.015466702441757973,1.0252215045547815e-07,7.045012109948435,0.30269053009866814,0.9120581986481361
0.10624700790744959,0.015432134153008707,8.661256434288695e-08,6.765322530009556,0.28794623500765537,0.9099293677720365
0.10736539746437011,0.015398403414630484,7.367890384111391e-08,6.474301121988268,0.2739201693869043,0.9078924919006212
0.10848378702129063,0.01536574071079952,6.313047752636596e-08,6.175231335809984,0.2605773466881935,0.9059610849416042
0.10960217657821116,0.015334407091273275,5.450085835996051e-08,5.871778230848591,0.24788448461384086,0.904149996861413
0.11072056613513168,0.015304691023151532,4.742089158856713e-08,5.567791832556896,0.23580992210459467,0.902475368796657
0.1118389556920522,0.015318740825409448,1.1730109958567781e-07,7.047428985174185,0.2243235403699296,0.9009545456134413
0.11223561157264797,0.015313786501723572,1.1506622877461425e-07,6.823096168305832,0.2203855529185097,0.900954545611453
0.11263226745324374,0.015308798315626516,1.1287059419132878e-07,6.600895478592036,0.21651669969969364,0.9009545461368126
0.11302892333383951,0.015303782028485955,1.1071350559927164e-07,6.3811523759944455,0.21271576701176795,0.9009545466848445
0.11342557921443529,0.015298743348284814,1.0859428630106341e-07,6.164173047214164,0.20898156246043512,0.9009545472572736
0.11382223509503106,0.015293687991024915,1.0651227147935553e-07,5.95024727386,0.2053129145847463,0.9009545478559846
0.11421889097562683,0.01528862165271866,1.0446680798827292e-07,5.73964708377119,0.20170867248960123,0.9009545484830419
0.1146155468562226,0.01528354998228483,1.0245725414852189e-07,5.532625612967451,0.19816770548469956,0.9009545491407129
0.11501220273681838,0.015278478555615439,1.0048297954609868e-07,5.329416184279906,0.19468890272983166,0.9009545498314921
0.11540885861741415,0.015273412851051478,9.854336483453618e-08,5.130231604709267,0.19127117288639514,0.9009545505581317
0.11580551449800992,0.015268358226473397,9.663780154062823e-08,4.935263679734852,0.18791344377503022,0.9009545513236773
0.1162021703786057,0.015263319898177728,9.476569187357093e-08,4.744682939251276,0.18461466203926502,0.9009545521315081
0.11659882625920147,0.015258302921676103,9.292644853746234e-08,4.55863856661589,0.1813737928150666,0.9009545529853876
0.11699548213979724,0.015253312174517109,9.111949454710389e-08,4.377258519504998,0.17818981940619238,0.900954553889519
0.11739213802039301,0.01524835234119665,8.934426304704668e-08,4.200649828942499,0.17506174296524132,0.9009545548486159
0.11778879390098879,0.015243427900188795,8.76001971338297e-08,4.028899060998422,0.17198858218030483,0.9009545558679884
0.11818544978158456,0.015238543113097521,8.588674968135663e-08,3.86207292426831,0.1689693729671182,0.9009545569536412
0.11858210566218033,0.01523370201590113,8.420338316936051e-08,3.700219005320651,0.1660031681666168,0.9009545581123996
0.1189787615427761,0.01522890841223502,8.254956951491002e-08,3.5433666138204263,0.16308903724780205,0.9009545593520639
0.11937541742337188,0.01522416586863604,8.092478990691065e-08,3.391527718965216,0.16022606601582368,0.9009545606816021
0.11977207330396765,0.015219477711652697,7.932853464356144e-08,3.244697959167728,0.1574133563251864,0.9009545621113878
0.12016872918456342,0.015214847026710287,7.776030297273078e-08,3.102857707534986,0.1546500257979921,0.900954563653511
0.1205653850651592,0.015210276658608184,7.62196029352245e-08,2.9659731765830473,0.15193520754712825,0.9009545653221713
0.12096204094575497,0.01520576921351903,7.470595121092805e-08,2.83399754673688,0.1492680499043157,0.9009545671341965
0.12135869682635074,0.015201327062355418,7.321887296782375e-08,2.7068721044534723,0.14664771615293096,0.9009545691097293
0.12175535270694651,0.015196952345370114,7.175790171390721e-08,2.5845273772317854,0.14407338426551955,0.900954571273154
0.12215200858754229,0.015192646977861182,7.032257915206994e-08,2.4668842543151936,0.14154424664591622,0.9009545736543709
0.12254866446813806,0.01518841265686551,6.89124550380843e-08,2.3538550835451635,0.13905950987589366,0.9009545762905872
0.12294532034873383,0.01518425086874753,6.752708704194742e-08,2.24534473664016,0.13661839446625823,0.9009545792289073
0.1233419762293296,0.01518016289763262,6.616604061306389e-08,2.141251637298715,0.13422013461231597,0.9009545825301691
0.12373863210992538,0.015176149834720059,6.482888885017341e-08,2.041468749357942,0.13186397795363095,0.9009545862748555
0.12413528799052115,0.015172212588690663,6.351521237781076e-08,1.9458845268063214,0.1295491853380016,0.9009545905725539
0.12453194387111692,0.015168351897850386,6.222459923303525e-08,1.8543838366250887,0.12727503058958076,0.9009545955779057
0.1249285997517127,0.015164568345776414,6.095664477093628e-08,1.76684888806374,0.125040800281066,0.900954601519198
0.12532525563230845,0.015160862385667606,5.971095161061538e-08,1.6831602695273589,0.12284579350988994,0.9009546087539293
0.1257219115129042,0.015157234391263548,5.8487129686713345e-08,1.6031984429574622,0.1206893216783394,0.9009546178889274
0.12611856739349997,0.01515368481371725,5.728479665572077e-08,1.526847260109406,0.11857070827753458,0.9009546300822348
0.12651522327409573,0.015150215003407571,5.6103580130597395e-08,1.4540105997859287,0.11648928867520093,0.9009546479994966
0.1269118791546915,0.015146848510767261,5.494316330431856e-08,1.3850399807995637,0.11444440990716671,0.9009546804212296
0.12730853503528725,0.015144666305597132,5.380532361353555e-08,1.341189637785572,0.11243543047252202,0.9009548441180554
0.127705190915883,0.015143202928264795,5.2692587838709636e-08,1.310782459488388,0.11046172013240933,0.9009602738704153
0.12810184679647876,0.015142030842796313,5.160551218212267e-08,1.284232042776204,0.10852265971232292,0.9009740404909505
0.12849850267707452,0.01514119025775991,5.0544146200633775e-08,1.261869766799001,0.10661764090783157,0.900997452487459
0.12889515855767028,0.015140747712546318,4.950923492989261e-08,1.2443485268779868,0.10474606609373786,0.9010325417656024
0.12929181443826604,0.015140808599323242,4.850279029109593e-08,1.2327303553879867,0.10290734813660797,0.9010826557519687
0.1296884703188618,0.015141545269076908,4.75295068217641e-08,1.228710725083727,0.10110091021060347,0.9011537267207864
0.13008512619945756,0.015143230601504135,4.660074275271564e-08,1.234481709422076,0.09932618561657111,0.9012574683261573
0.13048178208005332,0.015146136157053843,4.574430263365966e-08,1.2485160017243822,0.09758261760437828,0.901420482516383
0.13087843796064907,0.01515033240163763,4.500660941192393e-08,1.2560589548372318,0.09586965919853949,0.9017058658113518
0.13127509384124483,0.015156662298428996,4.4422491708411294e-08,1.2496504470144807,0.0941867730269419,0.9022056966878175
0.1316717497218406,0.015166105463186492,4.39949807506274e-08,1.2361906326283931,0.09253343115204751,0.902966770535329
0.13206840560243635,0.015178986608063823,4.3711332577770974e-08,1.220520994060086,0.09090911490470414,0.9039947627676764
0.1324650614830321,0.015195323607311757,4.355723656543686e-08,1.2046702907355564,0.08931331472115508,0.9052831208104674
0.13286171736362787,0.01521503373786097,4.352036259571543e-08,1.1894671821658251,0.08774552998315963,0.9068223456477705
0.13325837324422363,0.0152380017233948,4.359079485108394e-08,1.17524416867128,0.0862052688609829,0.9086024094864704
0.13365502912481939,0.015264103257151114,4.376082007326767e-08,1.1621141272684492,0.08469204815914921,0.9106134655979556
0.13405168500541514,0.015293213972694139,4.4024622537372827e-08,1.1500870907094392,0.0832053931649002,0.912846074253599
0.1344483408860109,0.015325213078590486,4.437801032425679e-08,1.1391237463014148,0.08174483749930767,0.9152912688665992
0.13484499676660666,0.015359984820605507,4.4818196356117553e-08,1.1291616186100906,0.0803099229709958,0.9179405631623823
0.13524165264720242,0.015397418986323427,4.5343632574551885e-08,1.1201285092717346,0.07890019943242703,0.9207859352682372
0.13563830852779818,0.015437410964945483,4.5953890318685155e-08,1.1119495996109123,0.07751522463870825,0.9238198028900688
0.13603496440839394,0.015479861595747194,4.664958004314475e-08,1.1045512374182576,0.07615456410887403,0.9270349956016724
0.1364316202889897,0.015524676918001731,4.743230497242239e-08,1.0978629199439556,0.074817790989603,0.9304247269298912
0.13682827616958546,0.015571767879317633,4.8304644955084474e-08,1.091818267951741,0.07350448592132676,0.933982567445278
0.13722493205018121,0.015621050031971583,4.9270168356442255e-08,1.0863554258637858,0.07221423690668835,0.9377024193814185
0.13762158793077697,0.01567244323276889,5.033347128125081e-08,1.0814171339736225,0.0709466391813107,0.9415784929736608
0.13801824381137273,0.015725871354480527,5.1500244805077754e-08,1.0769506153916193,0.0697012950868344,0.9456052845436553
0.1384148996919685,0.015781262012804907,5.277737229999065e-08,1.072907362020914,0.06847781394618545,0.9497775562751029
0.13881155557256425,0.01583854631051258,5.417306046845806e-08,1.0692428699544956,0.06727581194103475,0.9540903175877884
