Time [s],Lmtc [m],STIM [ ],Fsee [N],Gamma [ ],Lcerel [ ]
0.0,0.019818836149605723,0.9999998649587664,1.0215901872944328,0.07047641126453687,1.2528842559218674
0.0018371657068558145,0.019870220807579872,0.9999998458833494,2.335704283095707,0.11067979486392264,1.252222889346124
0.003674331413711629,0.019866945127828217,0.9999997941491408,3.6191350331023036,0.14914431666987876,1.2487128610888945
0.005511497120567444,0.019833631563716335,0.9999997176641329,4.585467384692563,0.18594518383769404,1.2441286045819606
0.007348662827423258,0.0197839660211565,0.9999996210223226,5.249588834161544,0.2211543510343242,1.2390954785438542
0.009185828534279072,0.019725527764559443,0.9999995087984831,5.707726933669192,0.2548406609704065,1.233857467351135
0.011022994241134888,0.01966238665815277,0.9999993853332252,6.039475466790199,0.28706997899654085,1.2285235226559832
0.012860159947990703,0.0195966903876543,0.999999254488952,6.2942719581594915,0.31790532186877135,1.223147499721723
0.014697325654846518,0.019529599023098476,0.9999991195378967,6.50084800959193,0.3474069809341952,1.2177581528909307
0.016534491361702333,0.019461762721798104,0.9999989831497879,6.675908736256496,0.3756326399837562,1.2123716936070952
0.01837165706855815,0.019393559657383784,0.9999988474355618,6.829399166443178,0.4026374880071811,1.2069975798995174
0.020208822775413963,0.019325216908257822,0.9999987140164713,6.9674270983089714,0.4284743270729738,1.2016414105172049
0.02204598848226978,0.01925687413073356,0.9999985841001594,7.093867702700173,0.45319367554541695,1.1963064720030763
0.023883154189125594,0.01918861846597778,0.9999984585537436,7.211258446314991,0.4768438668405598,1.190994612866047
0.02572031989598141,0.019120504440973247,0.9999983379692372,7.321311022584627,0.49947114391401426,1.185706760825076
0.027557485602837224,0.019052565734736227,0.9999982227196791,7.425212555588429,0.5211197496648318,1.1804432408523582
0.02939465130969304,0.01898482236819662,0.999998113005984,7.5238078690415,0.5418320134316923,1.1752039771198992
0.031231817016548855,0.018917285229175795,0.9999980088953122,7.617712785299964,0.5616484337500226,1.169988624722746
0.033068982723404666,0.018849958995690103,0.999997910352067,7.7073863459058165,0.5806077575313946,1.16479665754392
0.03490614843026048,0.018782844068564373,0.9999978172626749,7.7931779341540715,0.5987470558196291,1.1596274279571783
0.03674331413711629,0.018715937875148712,0.9999977294552301,7.875358692060997,0.6161017962713964,1.154480208005292
0.0385804798439721,0.018649235764342256,0.9999976467149506,7.95414288779511,0.6327059125027666,1.1493542181349088
0.04041764555082791,0.018582731630356907,0.9999975687962489,8.029702718403277,0.6485918704370756,1.1442486474185818
0.042254811257683725,0.018516418352982945,0.9999974954320857,8.102178741287304,0.6637907317836634,1.1391626678595177
0.044091976964539537,0.018450288111582804,0.9999974263411496,8.171687342809381,0.6783322147714596,1.1340954445259863
0.04592914267139535,0.018384332610846627,0.9999973612333004,8.238326165221949,0.6922447522560522,1.1290461427113618
0.04776630837825116,0.018318543244030573,0.9999972998136268,8.302178104932787,0.7055555473137703,1.124013932951045
0.04960347408510697,0.018252911211350618,0.9999972417853992,8.363314296632373,0.7182906264314065,1.1189979944819066
0.05144063979196278,0.01818742760585193,0.9999971868521348,8.421796367819988,0.7304748903955288,1.113997517561869
0.053277805498818595,0.018122083475455894,0.9999971347189507,8.477678161787148,0.7421321629808326,1.1090117049505703
0.05511497120567441,0.01805686986740614,0.9999970850933373,8.531007068737331,0.7532852375327076,1.1040397727700864
0.05695213691253022,0.01799177785960966,0.9999970376854562,8.581825064765317,0.7639559215350635,1.0990809509063075
0.05878930261938603,0.017926798582154516,0.9999969922080418,8.63016953071827,0.7741650792505389,1.0941344830695943
0.06062646832624184,0.017861923231420336,0.9999969483759614,8.676073903521976,0.7839326725164486,1.0891996266028428
0.062463634033097654,0.017797140514239227,0.9999969059054774,8.719437998480032,0.7932777997762225,1.0842756521027421
0.06430079973995347,0.01773243849944194,0.9999968645132327,8.760120921873181,0.8022187334226384,1.07936184290347
0.06613796544680928,0.01766780867448822,0.9999968239149745,8.798148064539209,0.8107729555258584,1.0744574944597767
0.06797513115366509,0.017603242610059067,0.999996783824014,8.833542975012952,0.8189571920161126,1.0695619136571684
0.0698122968605209,0.01753873194312314,0.9999967439494096,8.866326896638508,0.8267874453878632,1.0646744180699523
0.07164946256737671,0.017474268372296042,0.9999967039938502,8.896518965584217,0.8342790259893778,1.0597943351825898
0.07348662827423252,0.017409843651995296,0.9999966636511997,8.924136376598344,0.8414465819588901,1.0549210015857926
0.07532379398108834,0.017345449585647082,0.9999966226036499,8.949194522381742,0.848304127865868,1.0500537621556798
0.07716095968794415,0.017281078018138878,0.9999965805184126,8.971707111202198,0.8548650721133756,1.0451919692219236
0.07899812539479996,0.017216720827664067,0.9999965370438577,8.991686266412335,0.8611422431550971,1.0403349817289644
0.08083529110165577,0.017152369917066732,0.9999964918049805,9.009142610787357,0.8671479145782641,1.0354821643929093
0.08267245680851158,0.017088017204765767,0.9999964443980445,9.024085338017162,0.8728938291015103,1.0306328868556072
0.0845096225153674,0.017023654615313577,0.9999963943842064,9.036522273230382,0.8783912215345513,1.0257865228364735
0.0863467882222232,0.016959274069626298,0.9999963412818699,9.04645992406625,0.8836508407445405,1.0209424492819283
0.08818395392907902,0.01689486747490706,0.9999962845574404,9.053903523522301,0.8886829706720185,1.0161000455117097
0.09002111963593483,0.01683042671427153,0.9999962236140529,9.058857065574719,0.8934974504374888,1.0112586923608555
0.09185828534279064,0.01676594363607459,0.9999961577777104,9.061323334381235,0.8981036935778595,1.0064177713157263
0.09369545104964645,0.01670141027803847,0.9999960862803166,9.061316096821804,0.9025107064502841,1.0015766636420942
0.09553261675650226,0.01663681930336566,0.9999960082443384,9.058875981779735,0.9067271058392705,0.9967347600638818
0.09736978246335808,0.01657215852630418,0.9999959226635095,9.053693200477671,0.9107611358015921,0.9918915970428455
0.09920694817021389,0.016507422292760355,0.999995828362392,9.045737711282976,0.9146206837817894,0.987046797418472
0.1010441138770697,0.016442605449052114,0.9999957239507353,9.03500727892219,0.918313296028911,0.9821999831302787
0.10288127958392551,0.01637770276490181,0.9999956077673751,9.021498829067806,0.9218461923444716,0.9773507734696092
0.10471844529078132,0.01631270892879888,0.9999954778061066,9.005208451458605,0.9252262801901181,0.9724987847544071
0.10655561099763713,0.016247618543058194,0.9999953316163036,8.986131400783988,0.928460168181906,0.967643629991808
0.10839277670449295,0.01618242611856687,0.9999951661675964,8.964262095457308,0.9315541789966303,0.9627849185280628
0.11022994241134876,0.01611712606920966,0.9999949776624286,8.939594114374847,0.9345143617140838,0.9579222556851897
0.11206710811820457,0.016051712705959925,0.9999947612714148,8.912120191732965,0.9373465036173855,0.9530552423836318
0.11390427382506038,0.0159861802306203,0.9999945107516225,8.881832209954197,0.9400561414714805,0.948183474750077
0.1157414395319162,0.0159205227291944,0.9999942178824851,8.848721190753883,0.9426485722973154,0.9433065437094854
0.117578605238772,0.015854734164867813,0.999993871608844,8.812777284361074,0.9451288636556157,0.9384240345602541
0.11941577094562782,0.015788808370573646,0.9999934566968441,8.773989756890622,0.9475018634488109,0.9335355265313251
0.12125293665248363,0.015722739041114556,0.9999929515457221,8.732346975847094,0.9497722092408754,0.9286405923199217
0.12309010235933944,0.01565651972480961,0.9999923244646378,8.687836393723137,0.9519443370794282,0.9237387976084548
0.12492726806619525,0.01559014381463081,0.9999915269919744,8.640444529635321,0.9540224897752323,0.9188297005590336
0.12676443377305108,0.015523604538789492,0.9999904810978261,8.590156948913194,0.9560107245346424,0.9139128512838282
0.1286015994799069,0.015456894950728212,0.9999890525589518,8.536958240514888,0.9579129197084306,0.9089877912894168
0.13043876518676273,0.015390007918467865,0.9999869892470995,8.480831992061663,0.9597327800971519,0.9040540528930897
0.13227593089361855,0.015322936113251855,0.9999837552043132,8.421760762101345,0.9614738393579378,0.8991111586089625
0.13411309660047438,0.015255671997416974,0.9999779747668334,8.359726048755604,0.9631394551307577,0.8941586205017612
0.1359502623073302,0.01518820781140803,0.9999647290703837,8.294708253100653,0.9647327803331806,0.8891959395066972
0.13778742801418603,0.015120535560399846,0.9999035198658888,8.226686660324496,0.9662566187673622,0.8842226047176698
0.13962459372104186,0.015052721696416098,5.4314404515455246e-05,8.159307712076487,0.9677119013696507,0.8792380926974773
0.14146175942789768,0.014984143601007586,1.3768870749249903e-05,8.060296109176809,0.8915005974245567,0.8742452379639789
0.1432989251347535,0.014915261433705434,6.517115065717813e-06,7.949979939078549,0.8212884536353443,0.8692479929911666
0.14513609084160933,0.014846040384492745,3.6775495062399214e-06,7.825974784265013,0.75660560216267,0.8642478498183445
0.14697325654846516,0.014776438966527377,2.2558070953359228e-06,7.68533270237849,0.6970169069845225,0.8592468731174678
0.14881042225532098,0.014706408717595624,1.4528321840967597e-06,7.5244902566944445,0.6421212672810938,0.8542478591274731
0.1506475879621768,0.014635895012693375,9.664499918644096e-07,7.339272706251484,0.5915491097436448,0.8492545341702514
0.15248475366903264,0.014564840001345721,6.583346166570039e-07,7.125004056623898,0.5449599446215648,0.8442718013282104
0.15432191937588846,0.014493189140818416,4.57061795732714e-07,6.876788482360711,0.5020400880244719,0.8393060452476
0.1561590850827443,0.014420903231291951,3.226197492587942e-07,6.590034486138886,0.4625005559789162,0.8343655067077106
0.1579962507896001,0.014347977984688186,2.3126730390334461e-07,6.261270736589093,0.42607512155275207,0.8294607405089208
0.15983341649645594,0.01427447251727098,1.6831877744828528e-07,5.8892292150990615,0.39251852380659596,0.8246051722258918
0.16167058220331176,0.014200546250533833,1.2440710704873547e-07,5.476035102324803,0.3616048172388692,0.8198157709344825
0.1635077479101676,0.014126500450141364,9.341924803985253e-08,5.028172222907571,0.3331258509331804,0.8151138554826676
0.16534491361702341,0.01405281712812069,7.12958777113471e-08,4.556785027642034,0.30688986732448,0.8105260536388013
0.16718207932387924,0.013980187279740755,5.530452904559939e-08,4.076980124225148,0.28272021123096086,0.8060854591273525
0.16901924503073507,0.013909526795730957,4.3584749433527396e-08,3.606173630331685,0.2604541405045332,0.8018331851122742
0.1708564107375909,0.013841992562596557,3.485746121206041e-08,3.1619379432836525,0.23994173031788293,0.7978210915565921
0.17269357644444672,0.013779016811036162,2.8241549145697923e-08,2.7595330764592676,0.2210448637262882,0.7941177245620569
0.17453074215130254,0.013722334916937485,2.314468089046265e-08,2.4082937007226817,0.20363630171769573,0.7908194642746261
0.17636790785815837,0.013673878475777116,1.918807651230992e-08,2.1072803230604547,0.18759882649645837,0.7880588856742826
0.1782050735650142,0.013635337787591855,1.6114276128639863e-08,1.8464706331960368,0.17282445223557172,0.7859773986481798
0.18004223927187002,0.013607353318769737,1.3693479444767206e-08,1.617082623310588,0.15921369798229382,0.7846389898122638
0.18187940497872584,0.013588929350337453,1.1706994823232613e-08,1.4175278103680513,0.14667491782187705,0.7839640553245606
0.18371657068558167,0.013574815399237088,8.848372919856232e-08,1.1891532549866877,0.13512368379587042,0.783778853321756
0.18410162720094808,0.013574036535841176,8.680970371886155e-08,1.174594107450867,0.13282043508493613,0.7837788533217548
0.1844866837163145,0.01357288064640498,8.517218569558573e-08,1.1505440488227285,0.13055644926798726,0.7837894572945459
0.1848717402316809,0.013572008757304924,8.356940526358265e-08,1.129870686601525,0.1283310570406087,0.7838085188566444
0.18525679674704731,0.01357146902931326,8.20016630267141e-08,1.1129932893383612,0.12614360050782555,0.7838375631365271
0.18564185326241373,0.013571336453741933,8.047022884871419e-08,1.1006019076985174,0.1239934329896439,0.783879005184469
0.18602690977778014,0.013571729357603469,7.89782276986357e-08,1.0937783103518393,0.12187991882988874,0.7839369010230093
0.18641196629314655,0.013572835219560798,7.753287787041991e-08,1.0940688658241686,0.11980243320831513,0.7840186477903415
0.18679702280851296,0.01357490557706246,7.615126411836017e-08,1.1023876068702532,0.11776036195596044,0.7841393280380154
0.18718207932387937,0.013578072922264036,7.486845998816549e-08,1.1130113483776818,0.1157531013737427,0.7843328946611176
0.18756713583924578,0.013582570758774469,7.372561246255384e-08,1.114307227671452,0.11378005805428963,0.7846649527476006
0.1879521923546122,0.013589245220721424,7.274124670258622e-08,1.1065881420204453,0.11184064870660224,0.7851976114464584
0.1883372488699786,0.013598662869682017,7.190867843435659e-08,1.094984125655757,0.10993429998321737,0.7859523515026934
0.188722305385345,0.013610980670270802,7.12128080657167e-08,1.0823137837863737,0.10806044831027344,0.7869293801745224
0.18910736190071142,0.01362618685724128,7.063838680573996e-08,1.0698042973088635,0.1062185397207583,0.7881227202898152
0.18949241841607783,0.013644210087542548,7.017197186541802e-08,1.0579801446945583,0.10440802969074126,0.7895247885083607
0.18987747493144425,0.013664958438934106,6.98021445892616e-08,1.0470541176673547,0.10262838297842997,0.7911277380701153
0.19026253144681066,0.013688334180136444,6.951931987528475e-08,1.037093183393445,0.10087907346597452,0.7929238948508808
0.19064758796217707,0.0137142398110996,6.931548350238496e-08,1.0280933296240289,0.09915958400396506,0.7949059057351859
0.19103264447754348,0.013742580641273313,6.918394480146423e-08,1.020015653145364,0.09746940625857585,0.7970667836346128
0.1914177009929099,0.013773265871152757,6.911912473557171e-08,1.0128047237963396,0.09580804056131055,0.7993999119239308
0.1918027575082763,0.01380620898249621,6.911638019512572e-08,1.0063982954114146,0.0941749957613055,0.8018990322254371
0.1921878140236427,0.013841327794963536,6.917186010609723e-08,1.0007325551592476,0.09256978908014762,0.804558225500506
0.19257287053900912,0.013878544358897977,6.928238808367074e-08,0.9957449695396904,0.09099194596916471,0.8073718908653766
0.19295792705437553,0.013917784769070645,6.944536681261592e-08,0.9913757916183229,0.08944099996914665,0.8103347241683876
0.19334298356974194,0.01395897894345938,6.965870010280943e-08,0.9875688046134454,0.08791649257245625,0.8134416972770999
0.19372804008510836,0.014002060390554232,6.99207293277901e-08,0.9842716239072733,0.08641797308748893,0.8166880385006527
0.19411309660047477,0.014046965977841261,7.023018161075808e-08,0.981435743177295,0.08494499850544256,0.8200692143124838
0.19449815311584118,0.014093635708208298,7.0586127661286e-08,0.9790164341798,0.08349713336935696,0.823580912406617
0.1948832096312076,0.014142012507710877,7.098794759869036e-08,0.9769725658710695,0.08207394964538534,0.8272190260539042
0.195268266146574,0.01419204202625434,7.143530344253466e-08,0.9752663826571002,0.08067502659625951,0.8309796396919203
0.1956533226619404,0.014243672451666578,7.192811722472341e-08,0.9738632659431431,0.07929995065691188,0.8348590156677564
0.19603837917730682,0.014296854337017308,7.246655389622603e-08,0.9727314935722955,0.07794831531221698,0.8388535820483901
0.19642343569267323,0.014351540440692673,7.305100837691825e-08,0.9718420057879656,0.07661972097681688,0.842959921414048
0.19680849220803964,0.01440768557855007,7.368209623911961e-08,0.9711681826245346,0.0753137748769952,0.8471747605535376
0.19719354872340605,0.014465246487391694,7.436064763180586e-08,0.9706856352842873,0.07403009093456439,0.8514949609854479
0.19757860523877246,0.014524181698967702,7.508770414922419e-08,0.970372012587308,0.07276828965273233,0.8559175102345998
0.19796366175413888,0.01458445142372769,7.586451842950698e-08,0.9702068226670025,0.07152799800391439,0.860439513798732
0.1983487182695053,0.014646017443567538,7.669255633967543e-08,0.9701712695287351,0.07030884931945827,0.8650581877458686
0.1987337747848717,0.01470884301285815,7.757350166624846e-08,0.9702481037650892,0.06911048318124827,0.869770851887994
0.1991188313002381,0.014772892767087709,7.850926328810012e-08,0.9704214865465971,0.06793254531515759,0.8745749234814689
0.19950388781560452,0.014838132638496523,7.950198486244891e-08,0.9706768659281936,0.06677468748631721,0.8794679114091137
0.19988894433097093,0.014904529778130195,8.05540571078872e-08,0.9710008644937157,0.06563656739616999,0.884447410802936
0.20027400084633734,0.01497205248378285,8.166813282200696e-08,0.9713811773807997,0.0645178485812801,0.8895110980702491
0.20065905736170375,0.01504067013334498,8.284714482723933e-08,0.9718064797711896,0.06341820031386763,0.8946567262892884
0.20104411387707016,0.015110353123111224,8.409432709886397e-08,0.9722663429865981,0.06233729750403896,0.8998821209435247
0.20142917039243657,0.01518107281064124,8.54132393957344e-08,0.972751158391631,0.06127482060368412,0.905185175966675
0.20181422690780298,0.01525280146180152,8.680779578934974e-08,0.9732520683684207,0.06023045551201308,0.9105638500729215
0.2021992834231694,0.015325512201648085,8.828229757304643e-08,0.9737609036898082,0.05920389348270258,0.9160161633491435
0.2025843399385358,0.015399178968839581,8.984147113334615e-08,0.9742701266777646,0.0581948310326264,0.9215401940880473
0.20296939645390222,0.015473776473297023,9.149051148355575e-08,0.9747727795901132,0.05720296985214217,0.9271340758429398
0.20335445296926863,0.015549280156850932,9.3235132300108e-08,0.9752624377309628,0.05622801671690825,0.9327959946865888
0.20373950948463504,0.015625666156639233,9.508162347045958e-08,0.9757331668286792,0.05526968340120477,0.9385241866581605
0.20412456600000145,0.015702911271039417,9.703691736466987e-08,0.9761794842694472,0.054327686592732884,0.944316935383603
0.20450962251536786,0.015780992927937124,9.910866528996797e-08,0.9765963238147671,0.05340174780886821,0.9501725698561045
0.20489467903073427,0.015859889155150332,1.0130532588999403e-07,0.976979003467863,0.05249159331434245,0.9560894623644186
0.20527973554610068,0.015939578552843326,1.0363626762251288e-07,0.9773231961869897,0.05159695404033035,0.9620660265578452
0.2056647920614671,0.016020040267779073,1.0611188790999169e-07,0.9776249031736349,0.05071756550491739,0.9681007156376453
0.2060498485768335,0.016101253969270982,1.087437521309048e-07,0.977880429490387,0.04985316773492533,0.9741920206654829
0.20643490509219992,0.016183199826706775,1.1154475633789625e-07,0.9780863617876615,0.04900350518907286,0.9803384689802842
0.20681996160756633,0.01626585848852764,1.1452931849408551e-07,0.9782395479401511,0.0481683266824488,0.9865386227156044
0.20720501812293274,0.016349211062555602,1.1771360416674424e-07,0.9783370784135608,0.04734738531227613,0.9927910774102406
0.20759007463829915,0.01643323909726019,1.2111579400865718e-07,0.9783762639224689,0.046540438384945045,0.999094460705402
0.20797513115366556,0.01651792456026689,1.2475640144497926e-07,0.9783545593490577,0.04574724734429486,1.0054474310717314
0.20836018766903197,0.016603249822332068,1.2865865355906575e-07,0.978269613238605,0.04496757770112368,1.0118486763922927
0.20874524418439838,0.016689197649524336,1.3284895131313906e-07,0.9781193336423492,0.04420119896390606,1.0182969130888255
0.2091303006997648,0.01677575118607496,1.3735742582108408e-07,0.977901799660719,0.04344788457069984,1.024790885228282
0.2095153572151312,0.01686289394092729,1.4221861592294326e-07,0.9776152492173676,0.042707411822222964,1.0313293635703658
0.20990041373049761,0.016950609775149266,1.4747229935930601e-07,0.9772580688230149,0.041979561816082846,1.0379111446707954
