Time [s],Lmtc [m],STIM [ ],Fsee [N],Gamma [ ],Lcerel [ ]
0.0,0.019593059105556202,0.999999867395397,1.8993639937253248,0.09925063791262487,1.2327409299579473
0.0016561422869528874,0.019607702265877488,0.9999998358374839,3.159547088781364,0.134446765181302,1.2303549228543664
0.003312284573905775,0.019589461955326515,0.9999997845781157,4.198799534144313,0.16826762789812633,1.226616808409601
0.004968426860858662,0.019552805040068847,0.9999997168343059,4.970847862692747,0.20076696276494868,1.2222924179790104
0.00662456914781155,0.019505319391369437,0.999999635488429,5.52020476924878,0.2319964068864067,1.2176833353432202
0.008280711434764438,0.019451557364176766,0.9999995433849378,5.91628028790242,0.26200557979709743,1.2129275133155049
0.009936853721717325,0.019394134299635265,0.9999994431990834,6.21287286124707,0.2908421622951922,1.2080943022422153
0.011592996008670213,0.019334544587971132,0.9999993373282842,6.445061818936859,0.3185519721905542,1.2032213597532966
0.013249138295623101,0.019273658885051087,0.9999992278406072,6.634662238178555,0.345179037088808,1.1983304068577219
0.014905280582575989,0.019211999168822158,0.9999991164669579,6.7952106789092905,0.3707656643294122,1.1934345509030762
0.016561422869528875,0.01914988778654673,0.9999990046197126,6.935239737877425,0.3953525081906466,1.1885419560460861
0.018217565156481763,0.019087529216260085,0.9999988934248307,7.06025059946836,0.4189786344693399,1.183657806141079
0.01987370744343465,0.019025056083308022,0.9999987837590363,7.173878485553844,0.44168158253844747,1.1787854137728584
0.02152984973038754,0.01896255585438361,0.9999986762870923,7.278585355607894,0.4634974249812261,1.1739268767527513
0.023185992017340427,0.01890008680726308,0.9999985714964926,7.376078417813281,0.4844608248967013,1.1690834824397094
0.024842134304293315,0.01883768787146301,0.9999984697283424,7.467568212003198,0.5046050909673234,1.1642559653169464
0.026498276591246202,0.018775384861548887,0.9999983712040527,7.553931246756883,0.523962230376099,1.1594446759057944
0.02815441887819909,0.01871319452653308,0.9999982760479557,7.635814713334058,0.5425629996570668,1.1546496943255002
0.029810561165151978,0.01865112724163947,0.9999981843061779,7.713705311000463,0.5604369535597125,1.1498709082879592
0.031466703452104866,0.01858918883510758,0.9999980959622146,7.78797537489873,0.5776124920047782,1.1451080676572354
0.03312284573905775,0.01852738185131095,0.9999980109496582,7.85891436242597,0.5941169052059165,1.1403608232181663
0.034778988026010635,0.01846570643881602,0.9999979291625161,7.926750715829623,0.6099764170287459,1.135628754592232
0.03643513031296352,0.018404160984091766,0.9999978504635032,7.991667286311828,0.6252162266560853,1.130911390562265
0.038091272599916404,0.018342742569698027,0.9999977746906478,8.053812378640782,0.6398605486254733,1.1262082240035407
0.03974741488686929,0.01828144730940294,0.9999977016624928,8.113307770205152,0.6539326513025087,1.1215187229287422
0.04140355717382217,0.018220270595737192,0.9999976311821334,8.170254609290378,0.6674548938510766,1.1168423386978095
0.04305969946077506,0.01815920728441072,0.9999975630402838,8.224737806432412,0.6804487617591457,1.1121785121363168
0.04471584174772794,0.01809825183264376,0.9999974970175326,8.276829341291496,0.692934900976542,1.10752667809558
0.046371984034680826,0.018037398403479853,0.9999974328859135,8.326590779670953,0.704933150718903,1.102886268841459
0.04802812632163371,0.017976640944729578,0.9999973704098893,8.374075208756224,0.7164625749898978,1.0982567165557895
0.049684268608586594,0.01791597324881586,0.999997309346827,8.419328739267936,0.7275414928717825,1.0936374551608614
0.05134041089553948,0.017855388998116825,0.9999972494470181,8.462391681974356,0.7381875076323895,1.0890279216242786
0.05299655318249236,0.017794879371592923,0.9999971904532824,8.503177756663687,0.7484175346947856,1.0844275568628017
0.05465269546944525,0.017734435175831825,0.999997132100177,8.541579254509546,0.7582478285140161,1.0798358063352294
0.05630883775639813,0.017674049992165163,0.9999970741128152,8.57762515579621,0.7676940084036337,1.0752521203931167
0.057964980043351017,0.017613717380989567,0.9999970162052868,8.611341425721541,0.776771083353024,1.0706759544422162
0.0596211223303039,0.017553430888455106,0.9999969580786552,8.642751238653554,0.7854934758749545,1.0661067689554435
0.061277264617256785,0.017493184053249167,0.9999968994184877,8.671875299644633,0.7938750449212139,1.061544029369
0.06293340690420968,0.017432970410778712,0.9999968398918592,8.698732109460778,0.801929107902747,1.0569872058862315
0.06458954919116257,0.01737278349526604,0.9999967791437445,8.723338184232464,0.8096684618492515,1.0524357732083385
0.06624569147811546,0.01731261684015996,0.9999967167926875,8.745708238388092,0.8171054037418352,1.0478892102068436
0.06790183376506835,0.017252463977176464,0.9999966524256009,8.76585533766813,0.8242517500510239,1.0433469995493874
0.06955797605202124,0.017192318434214874,0.9999965855915066,8.783791027587764,0.8311188555111274,1.0388086272878256
0.07121411833897413,0.0171321737323421,0.9999965157939704,8.799525441611257,0.8377176311607716,1.0342735824155351
0.07287026062592702,0.01707202338199564,0.999996442481909,8.81306739244193,0.8440585616782097,1.0297413563991877
0.07452640291287992,0.017011860878522543,0.9999963650383489,8.824424449159064,0.8501517220389122,1.025211442688947
0.07618254519983281,0.01695167969714484,0.9999962827665849,8.833603002403754,0.8560067935218341,1.0206833362099517
0.0778386874867857,0.016891473287420432,0.9999961948730026,8.840608319395871,0.8616330790897044,1.016156532837113
0.07949482977373859,0.01683123506725106,0.999996100445579,8.845444590230146,0.8670395181676787,1.0116305288545149
0.08115097206069148,0.0167709584164745,0.999995998426727,8.848114966631083,0.872234700843675,1.007104820400133
0.08280711434764437,0.016710636768774018,0.9999958875787286,8.848626642834455,0.8772268815127914,1.0025789028960796
0.08446325663459726,0.016650264645551666,0.999995766443022,8.847041370974873,0.8820239919872205,0.9980522744998003
0.08611939892155016,0.016589831661506703,0.9999956332927832,8.843113180473523,0.8866336540923164,0.9935245178284134
0.08777554120850305,0.016529332155588158,0.9999954860535551,8.836766279215855,0.8910631917686236,0.9889953217324018
0.08943168349545594,0.016468761961599455,0.9999953221987596,8.827999503701337,0.8953196426979297,0.9844643792101808
0.09108782578240883,0.016408116849543908,0.9999951386139899,8.816810995053366,0.899409769470952,0.9799313809697499
0.09274396806936172,0.016347392522827343,0.9999949314100041,8.803198207988466,0.9033400703133554,0.9753960152229041
0.09440011035631461,0.016286584615196956,0.9999946956599669,8.787157917409028,0.90711678938535,0.9708579674683725
0.0960562526432675,0.01622568868741983,0.9999944250225086,8.768686222829032,0.9107459266685732,0.9663169202639423
0.0977123949302204,0.016164700223701554,0.9999941111881511,8.747778550804135,0.9142332474519209,0.961772552987504
0.09936853721717329,0.01610361462784299,0.9999937430443154,8.724429655505114,0.9175842914250947,0.9572245415868609
0.10102467950412618,0.01604242721913056,0.9999933053764963,8.6986336175454,0.9208043813841994,0.9526725583180266
0.10268082179107907,0.015981133227952922,0.9999927767742797,8.670383841148508,0.9238986315464273,0.9481162714716393
0.10433696407803196,0.015919727791134933,0.9999921261096586,8.639673049717764,0.9268719554580289,0.9435553450870425
0.10599310636498485,0.015858205946977007,0.9999913063063127,8.606493279847097,0.9297290734556831,0.9389894386534713
0.10764924865193774,0.015796562629985918,0.9999902426109727,8.570835873784825,0.9324745195928588,0.9344182067977165
0.10930539093889063,0.015734792665280113,0.9999888087310149,8.532691470323881,0.9351126478372496,0.9298412989575435
0.11096153322584353,0.01567289076264971,0.9999867731417873,8.492049994025164,0.9376476370936553,0.9252583590400778
0.11261767551279642,0.01561085151024647,0.9999836606076046,8.448900642535634,0.9400834939326117,0.9206690250643211
0.11427381779974931,0.015548669367871432,0.9999783169213469,8.403231871403042,0.9424240498014916,0.9160729287870013
0.1159299600867022,0.015486338659814443,0.999967022463892,8.355031374960964,0.9446729413372594,0.9114696953113295
0.11758610237365509,0.015423853567341262,0.9999274505440013,8.304286067559868,0.9468335177379273,0.9068589426803718
0.11924224466060798,0.01536127225811302,0.00011832517801329101,8.254150132268911,0.9489081249433547,0.9022402814768704
0.12089838694756087,0.015298047403458422,1.7919369802499467e-05,8.176220691643914,0.8812765751729739,0.8976159454532627
0.12255452923451376,0.015234592566149192,8.051419583592833e-06,8.089153381848309,0.8184588251770696,0.892988936737794
0.12421067152146666,0.015170882387800379,4.514384323669137e-06,7.991236485662007,0.7601181882088373,0.8883602308172595
0.12586681380841955,0.015106886996209268,2.790847452774691e-06,7.880380533355398,0.7059359750139866,0.8837311560083593
0.12752295609537243,0.015042571685723916,1.8225938606512088e-06,7.754077688327463,0.6556158913463339,0.8791034833239117
0.1291790983823253,0.014977897012040314,1.2329003001129456e-06,7.609381693768068,0.6088826881706352,0.8744795369423377
0.13083524066927818,0.014912819741596839,8.549543990331063e-07,7.442930732994363,0.5654807100819966,0.8698623297306008
0.13249138295623106,0.014847295257844926,6.041941494641791e-07,7.251042163670966,0.5251725135826043,0.8652557287511212
0.13414752524318393,0.014781282246405509,4.3365389294926205e-07,7.0299149102336465,0.48773757475147467,0.860664656428756
0.1358036675301368,0.014714750663977896,3.1550361267083947e-07,6.775976076103171,0.4529710858519215,0.8560953338638493
0.1374598098170897,0.014647694019265831,2.3245225419046265e-07,6.486395417115174,0.4206828364041295,0.8515555736029613
0.13911595210404257,0.014580146674760382,1.733699605333716e-07,6.159755805110281,0.39069617340506607,0.8470551298932614
0.14077209439099544,0.01451220602287107,1.3089822537715763e-07,5.796804961417454,0.3628470353546303,0.842606114775693
0.14242823667794832,0.014444057938870533,1.0007116659379362e-07,5.401132789875884,0.33698305496863523,0.838223487935757
0.1440843789649012,0.01437600217698553,7.748393487358958e-08,4.979552750876526,0.31296272575451983,0.8339256272844295
0.14574052125185408,0.014308473280873325,6.077261584105163e-08,4.5419704303996475,0.2906546279364851,0.829734990388302
0.14739666353880695,0.01424205370763902,4.827906109184063e-08,4.10064735854808,0.26993670952167254,0.8256789064832125
0.14905280582575983,0.014177480770752364,3.882962069631544e-08,3.668992129146637,0.25069561858996947,0.8217906688155534
0.1507089481127127,0.014115656559771027,3.1587259372484343e-08,3.2601584490629487,0.23282608316420034,0.8181114800262216
0.1523650903996656,0.014057671067828514,2.5954627863170212e-08,2.885507820617618,0.21623033527428093,0.814694452520492
0.15402123268661846,0.014004824849275533,2.1514116777168823e-08,2.5524946197667404,0.2008175760687032,0.8116115893124882
0.15567737497357134,0.013958580079522704,1.7986688402151167e-08,2.2620512977261895,0.18650347905002376,0.8089595158007938
0.15733351726052422,0.013920318887534243,1.518320552483943e-08,2.0082746406896503,0.17320972871811607,0.8068473154606263
0.1589896595474771,0.01389084931121902,1.2945141852167401e-08,1.7835318609718316,0.16086359209668838,0.8053490119906225
0.16064580183442997,0.013869900942949421,1.1115173062328555e-08,1.5842431809733946,0.1493975207983073,0.8044478489424699
0.16230194412138285,0.013856149714522786,9.555101359046736e-09,1.4101900726954832,0.13874878145318814,0.8040371284588459
0.16395808640833573,0.01384315103594981,8.155852771764583e-09,1.1718620095671781,0.12885911248328374,0.8039781006528685
0.1656142286952886,0.013830866883998831,7.364457664436098e-08,0.9543683107177412,0.11967440534314167,0.8039780803427597
0.16595808640833573,0.013841624901590492,7.239977527916077e-08,1.1436323463706353,0.1178511009144486,0.8039780803427594
0.16630194412138286,0.013843012473059213,7.121604457453171e-08,1.1472437419066128,0.11605557783649599,0.8040674504490112
0.16664580183442998,0.013845285890505193,7.008831256406676e-08,1.157148893505724,0.11428741281064697,0.8041977365141175
0.1669896595474771,0.013848514342880897,6.904529565892587e-08,1.1663600836556498,0.11254618898791445,0.8044026416741151
0.16733351726052423,0.01385297594773853,6.811547472538128e-08,1.1665457757914754,0.11083149587120382,0.804736589097201
0.16767737497357135,0.013859329357778298,6.730952949175772e-08,1.1592945377650277,0.10914292921852659,0.8052425412309504
0.16802123268661848,0.013867981175749713,6.662226501132935e-08,1.1486440617449138,0.10748009094742117,0.8059348329336491
0.1683650903996656,0.013879057598051263,6.604325703222456e-08,1.1368782215204467,0.10584258904085964,0.806813775626156
0.16870894811271273,0.013892560712681072,6.556180424561414e-08,1.1250744595892272,0.10423003745474971,0.8078751673309881
0.16905280582575985,0.013908444068695406,6.516826593044804e-08,1.1137348216362224,0.1026420560269223,0.8091134540831085
0.16939666353880697,0.01392664236462713,6.48542942333529e-08,1.1030884549400735,0.10107827038752562,0.8105227597415384
0.1697405212518541,0.013947083589732356,6.46127635995621e-08,1.0932291316774243,0.09953831187078854,0.8120972526407754
0.17008437896490122,0.01396969433509019,6.443762727923309e-08,1.0841807013871905,0.09802181742812709,0.8138312842834324
0.17042823667794835,0.01399440223426078,6.43237690884422e-08,1.0759300744221227,0.09652842954257246,0.8157194407003948
0.17077209439099547,0.014021137102516892,6.426687013169399e-08,1.0684447018839773,0.09505779614450158,0.8177565573609658
0.1711159521040426,0.014049831447701302,6.426329469361338e-08,1.0616822144453448,0.09360957052864836,0.8199377179880403
0.17145980981708972,0.014080420662911783,6.43099944931538e-08,1.0555958899114097,0.09218341127237872,0.8222582461176882
0.17180366753013684,0.014112843053002934,6.440442904517855e-08,1.050137805605613,0.09077898215520899,0.8247136934966337
0.17214752524318397,0.014147039773251425,6.454449967193985e-08,1.0452606605144337,0.08939595207954928,0.8272998273050651
0.1724913829562311,0.01418295472226031,6.47284949224036e-08,1.0409188119868291,0.08803399499265364,0.8300126171986437
0.17283524066927822,0.014220534412424999,6.495504548475257e-08,1.0370688391947132,0.08669278980975849,0.8328482226707425
0.17317909838232534,0.01425972783117867,6.522308700499145e-08,1.0336698177058592,0.08537202033839153,0.8358029809815983
0.17352295609537247,0.014300486300595848,6.553182951525979e-08,1.0306834167721008,0.08407137520383356,0.8388733957658135
0.1738668138084196,0.01434276333969262,6.588073242100783e-08,1.0280738882789306,0.08279054777571532,0.8420561263563339
0.17421067152146671,0.014386514531856466,6.626948419910675e-08,1.0258079906288586,0.08152923609573247,0.8453479778230882
0.17455452923451384,0.01443169739869741,6.669798612516852e-08,1.023854875026752,0.08028714280646156,0.8487458917029701
0.17489838694756096,0.014478271280920978,6.716633948426613e-08,1.022185951718167,0.07906397508126062,0.8522469373867597
0.1752422446606081,0.014526197226402844,6.76748358307537e-08,1.020774747407054,0.07785944455523726,0.8558483041234837
0.1755861023736552,0.01457543788539057,6.822394995500491e-08,1.0195967609928636,0.07667326725726888,0.859547293601074
0.17592996008670234,0.014625957412606297,6.881433529177424e-08,1.0186293220996663,0.07550516354305835,0.8633413130625
0.17627381779974946,0.014677721375938063,6.944682156993774e-08,1.0178514551164815,0.07435485802920955,0.8672278689180043
0.17661767551279658,0.014730696671362398,7.012241455937021e-08,1.0172437503115528,0.0732220795283075,0.8712045608161058
0.1769615332258437,0.014784851443721795,7.084229781994802e-08,1.016788242820453,0.07210656098498754,0.8752690761383496
0.17730539093889083,0.014840155012978567,7.160783640204424e-08,1.0164682998078638,0.07100803941297887,0.8794191848852094
0.17764924865193796,0.014896577805574275,7.242058248903485e-08,1.0162685157785938,0.06992625583310715,0.883652734922923
0.17799310636498508,0.014954091290538464,7.328228301169665e-08,1.0161746158083766,0.06886095521224188,0.8879676475633757
0.1783369640780322,0.015012667920007945,7.419488930325915e-08,1.0161733663396442,0.06781188640317426,0.8923619134513223
0.17868082179107933,0.015072281073837786,7.516056890351907e-08,1.0162524931168504,0.06677880208541129,0.8968335887353103
0.17902467950412645,0.015132905008005194,7.618171966208297e-08,1.016400605801214,0.06576145870687182,0.901380791500562
0.17936853721717358,0.015194514806527924,7.726098633576256e-08,1.0166071287947296,0.06475961642647163,0.9060016984438637
0.1797123949302207,0.015257086336638505,7.840127992481955e-08,1.016862237808699,0.06377303905758333,0.9106945417721238
0.18005625264326783,0.015320596206974346,7.960580004872165e-08,1.017156801728014,0.06280149401235806,0.9154576063077693
0.18040011035631495,0.015385021728561876,8.087806072616411e-08,1.017482329344017,0.061844752246895965,0.9202892267855295
0.18074396806936208,0.015450340878389443,8.222191999849949e-08,1.0178309205543457,0.06090258820725246,0.9251877853264008
0.1810878257824092,0.015516532265379596,8.364161392302247e-08,1.0181952216547732,0.05997477977626762,0.9301517090757565
0.18143168349545633,0.01558357509858593,8.51417955659728e-08,1.0185683843754485,0.05906110822120632,0.9351794679936153
0.18177554120850345,0.015651449157453114,8.672757974859729e-08,1.0189440283405127,0.05816135814219653,0.9402695727860395
0.18211939892155057,0.01572013476399145,8.840459444809166e-08,1.0193162066558632,0.057275317421454315,0.9454205729675299
0.1824632566345977,0.015789612756728626,9.017903993491527e-08,1.019679374354129,0.05640277717328292,0.9506310550450818
0.18280711434764482,0.01585986446631228,9.205775694669166e-08,1.0200283594488244,0.05554353169483475,0.9558996408153113
0.18315097206069195,0.01593087169264643,9.404830546668883e-08,1.0203583363709279,0.05469737841762461,0.9612249857667288
0.18349482977373907,0.01600261668345429,9.61590560045551e-08,1.0206648015808728,0.0538641178597831,0.9666057775798694
0.1838386874867862,0.016075082114167843,9.839929568517004e-08,1.0209435511669953,0.05304355357903847,0.9720407347185349
0.18418254519983332,0.016148251069052627,1.0077935195971872e-07,1.0211906602583107,0.05223549212641699,0.9775286051059473
0.18452640291288044,0.016222107023482736,1.033107373896625e-07,1.0214024640945556,0.05143974300065032,0.9830681648800591
0.18487026062592757,0.01629663382728789,1.0600631975637456e-07,1.0215755406105849,0.05065611860327999,0.9886582172227285
0.1852141183389747,0.016371815689100105,1.0888052276626595e-07,1.0217066944047617,0.04988443419444829,0.9942975912578473
0.18555797605202182,0.01644763716118374,1.119495638213355e-07,1.0217929341640632,0.04912450784936618,0.9999851410138874
0.18590183376506894,0.016524083121108257,1.1523173641366411e-07,1.0218313967116444,0.04837616041544772,1.0057197443798602
0.18624569147811607,0.016601138761581025,1.1874774891383506e-07,1.0218194308810298,0.04763921547010238,1.0115003019835083
0.1865895491911632,0.016678789582610667,1.2252113323925814e-07,1.0217546160569408,0.04691349927917502,1.0173257365262198
0.18693340690421031,0.016757021377587587,1.2657873880625383e-07,1.0216346948232276,0.04619884075602603,1.0231949920321544
0.18727726461725744,0.01683582022238716,1.3095133411747292e-07,1.0214575631103173,0.04549507142124199,1.0291070330757903
0.18762112233030456,0.01691517246509567,1.3567434449199666e-07,1.021221261084072,0.04480202536296949,1.0350608440528482
0.1879649800433517,0.01699506471631994,1.4078876325532545e-07,1.0209239647138884,0.04411953919786477,1.041055428491917
0.1883088377563988,0.017075483840043915,1.4634228587689642e-07,1.020563977963614,0.043447452032651976,1.0470898084042841
0.18865269546944594,0.017156416944998285,1.5239073336779678e-07,1.0201397255536924,0.042785605426284554,1.0531630236696439
0.18899655318249306,0.01723785137651162,1.5899985479676594e-07,1.0196497462473986,0.04213384335270497,1.0592741314555254
