Time [s],Lmtc [m],STIM [ ],fGM [N],fGL [N]
0.0,0.043548643589019775,0.0006103515625,0.2554470896720886,0.09409992396831512
0.0004999999999999449,0.04354889318346977,0.00030517578125,0.2555698752403259,0.09377433359622955
0.0010000000000000009,0.04354865476489067,0.0,0.25536298751831055,0.09336725622415543
0.0014999999999999458,0.04354861006140709,0.0006103515625,0.25522157549858093,0.09400804340839386
0.0020000000000000018,0.043548762798309326,0.0006103515625,0.25495702028274536,0.09402391314506531
0.0024999999999999467,0.04354899376630783,0.0006103515625,0.2550983130931854,0.09436894208192825
0.0030000000000000027,0.04354877769947052,0.00030517578125,0.25491487979888916,0.09509032964706421
0.0034999999999999476,0.043548814952373505,0.0006103515625,0.25532203912734985,0.09430680423974991
0.0040000000000000036,0.04354853183031082,0.00030517578125,0.25525033473968506,0.09428013861179352
0.0044999999999999485,0.04354851320385933,0.0006103515625,0.25525709986686707,0.09385695308446884
0.0050000000000000044,0.043548692017793655,0.0006103515625,0.25549495220184326,0.09401486068964005
0.005499999999999949,0.04354877397418022,0.0006103515625,0.25482240319252014,0.09450582414865494
0.006000000000000005,0.04354836791753769,0.00030517578125,0.25391778349876404,0.09396527707576752
0.00649999999999995,0.043547749519348145,0.00030517578125,0.2517613470554352,0.09380526095628738
0.007000000000000006,0.043545953929424286,0.00091552734375,0.2482919692993164,0.09312046319246292
0.007499999999999951,0.043542709201574326,0.0006103515625,0.24234028160572052,0.09365035593509674
0.008000000000000007,0.04353732988238335,0.00030517578125,0.23596560955047607,0.09348806738853455
0.008499999999999952,0.04352985695004463,0.00030517578125,0.22866655886173248,0.0946560651063919
0.009000000000000008,0.043519310653209686,0.0006103515625,0.2192562222480774,0.093882717192173
0.009499999999999953,0.04350662976503372,0.0006103515625,0.2096651941537857,0.0947866290807724
0.010000000000000009,0.04349125921726227,0.00030517578125,0.19999058544635773,0.09412861615419388
0.010499999999999954,0.043473757803440094,0.00030517578125,0.19078171253204346,0.09370989352464676
0.01100000000000001,0.043454281985759735,0.0006103515625,0.18174521625041962,0.09425710141658783
0.011499999999999955,0.043433330953121185,0.00030517578125,0.17416153848171234,0.09472579509019852
0.01200000000000001,0.04341081157326698,0.0006103515625,0.16719907522201538,0.09473351389169693
0.012499999999999956,0.04338734596967697,0.00030517578125,0.16151264309883118,0.0935986191034317
0.013000000000000012,0.04336324334144592,0.00091552734375,0.1563483625650406,0.09347636997699738
0.013499999999999956,0.04333910718560219,0.00030517578125,0.15246137976646423,0.09415432810783386
0.014000000000000012,0.04331482946872711,0.0006103515625,0.1483595222234726,0.09328418970108032
0.014499999999999957,0.04329018294811249,0.001220703125,0.1449570208787918,0.09408789128065109
0.015000000000000013,0.04326576739549637,0.0006103515625,0.14117461442947388,0.09334337711334229
0.015499999999999958,0.04324167221784592,0.00030517578125,0.13767486810684204,0.09199578315019608
0.016000000000000014,0.04321780800819397,0.00030517578125,0.1345771849155426,0.0921318531036377
0.01649999999999996,0.043193917721509933,0.0006103515625,0.13072870671749115,0.09140139073133469
0.017000000000000015,0.04317065328359604,0.00030517578125,0.1279006004333496,0.09065995365381241
0.01749999999999996,0.04314665123820305,0.0,0.12402667105197906,0.09038615226745605
0.018000000000000016,0.04312317445874214,0.00030517578125,0.12142448872327805,0.08902310580015182
0.01849999999999996,0.04309960827231407,0.0006103515625,0.11853928864002228,0.08959906548261642
0.019000000000000017,0.04307607188820839,0.00030517578125,0.11492609977722168,0.08909353613853455
0.019499999999999962,0.043052930384874344,0.0006103515625,0.11174541711807251,0.08844153583049774
0.020000000000000018,0.04302927106618881,0.00030517578125,0.10909973084926605,0.08868946880102158
0.020499999999999963,0.043005719780921936,0.00030517578125,0.1058068573474884,0.08832018822431564
0.02100000000000002,0.04298244044184685,0.0006103515625,0.10301289707422256,0.08861710876226425
0.021499999999999964,0.042958714067935944,0.0006103515625,0.1001683697104454,0.08783736824989319
0.02200000000000002,0.042935412377119064,0.00030517578125,0.097397580742836,0.08794296532869339
0.022499999999999964,0.0429115891456604,0.00030517578125,0.09515690058469772,0.08817481249570847
0.02300000000000002,0.04288811981678009,0.00030517578125,0.09208609163761139,0.08779344707727432
0.023499999999999965,0.042864713817834854,0.0,0.089835986495018,0.08708439022302628
0.02400000000000002,0.04284127801656723,0.001220703125,0.08752551674842834,0.08726833760738373
0.024499999999999966,0.04281754419207573,0.0006103515625,0.08496200293302536,0.08662205189466476
0.025000000000000022,0.04279433190822601,0.0006103515625,0.08323384076356888,0.08740811049938202
0.025499999999999967,0.042770348489284515,0.0006103515625,0.08147633820772171,0.0869608148932457
0.026000000000000023,0.04274674504995346,0.00030517578125,0.07924377173185349,0.08833066374063492
0.026499999999999968,0.04272342100739479,0.00030517578125,0.07746788114309311,0.08730549365282059
0.027000000000000024,0.04270000383257866,0.0006103515625,0.0759725570678711,0.08800650388002396
0.02749999999999997,0.042676281183958054,0.0,0.07395634800195694,0.08777846395969391
0.028000000000000025,0.0426526740193367,0.0006103515625,0.0729023665189743,0.08776185661554337
0.02849999999999997,0.04262947663664818,0.00030517578125,0.07128836214542389,0.08730511367321014
0.029000000000000026,0.042605966329574585,0.00091552734375,0.06963714957237244,0.08690209686756134
0.02949999999999997,0.04258246347308159,0.00091552734375,0.06796766072511673,0.08608698099851608
0.030000000000000027,0.04255899041891098,0.0006103515625,0.06681419163942337,0.0863984003663063
0.03049999999999997,0.042535699903964996,0.00030517578125,0.06551948189735413,0.08775754272937775
0.031000000000000028,0.04251178354024887,0.00030517578125,0.06394962966442108,0.0879267230629921
0.03149999999999997,0.04248851537704468,0.0006103515625,0.06240324676036835,0.08713869750499725
0.03200000000000003,0.04246515408158302,0.00030517578125,0.061036933213472366,0.08748391270637512
0.03249999999999997,0.0424417108297348,0.0006103515625,0.059764470905065536,0.08793383836746216
0.03300000000000003,0.042418017983436584,0.0006103515625,0.05847802758216858,0.08731347322463989
0.033499999999999974,0.04239489883184433,0.00030517578125,0.05668299272656441,0.08874785155057907
0.03400000000000003,0.04237130284309387,0.00091552734375,0.05585052818059921,0.08770918101072311
0.034499999999999975,0.042347799986600876,0.0,0.054532140493392944,0.08759066462516785
0.03500000000000003,0.04232440143823624,0.0006103515625,0.053492769598960876,0.08704917132854462
0.035499999999999976,0.042301028966903687,0.00152587890625,0.051982712000608444,0.08761187642812729
0.03600000000000003,0.042277391999959946,0.0006103515625,0.050739023834466934,0.08731487393379211
0.03649999999999998,0.042254023253917694,0.0006103515625,0.04973296821117401,0.08754593133926392
0.03700000000000003,0.042230285704135895,0.00030517578125,0.04909779131412506,0.08756881952285767
0.03749999999999998,0.04220714047551155,0.00030517578125,0.047725021839141846,0.08714286983013153
0.038000000000000034,0.04218367859721184,0.0006103515625,0.04574180766940117,0.08771641552448273
0.03849999999999998,0.04216040298342705,0.0006103515625,0.04535046964883804,0.0874737873673439
0.039000000000000035,0.04213661327958107,0.00030517578125,0.04412553459405899,0.08670999854803085
0.03949999999999998,0.04211316257715225,0.00030517578125,0.04317304119467735,0.0873422622680664
0.040000000000000036,0.04208965599536896,0.0006103515625,0.04233059659600258,0.08649183809757233
0.04049999999999998,0.042066264897584915,0.00030517578125,0.0414956770837307,0.08706993609666824
0.041000000000000036,0.0420428141951561,0.00030517578125,0.040282368659973145,0.08629389107227325
0.04149999999999998,0.0420193150639534,0.0006103515625,0.039399515837430954,0.08727120608091354
0.04200000000000004,0.04199552536010742,0.0006103515625,0.03838436305522919,0.08641382306814194
0.04249999999999998,0.0419723279774189,0.00030517578125,0.03716813027858734,0.08700954169034958
0.04300000000000004,0.04194878041744232,0.00091552734375,0.03702634200453758,0.08696720004081726
0.04349999999999998,0.04192538559436798,0.0006103515625,0.03579721972346306,0.0870525985956192
0.04400000000000004,0.04190213605761528,0.00030517578125,0.035115763545036316,0.08646435290575027
0.044499999999999984,0.041878439486026764,0.0,0.03445052355527878,0.08647401630878448
0.04500000000000004,0.041855089366436005,0.0006103515625,0.03323962539434433,0.08597823977470398
0.045499999999999985,0.04183162376284599,0.0006103515625,0.032158978283405304,0.0865655317902565
0.04600000000000004,0.04180831089615822,0.00030517578125,0.031385671347379684,0.08610477298498154
0.046499999999999986,0.041785143315792084,0.00030517578125,0.03026699461042881,0.08568920940160751
0.04700000000000004,0.041761722415685654,0.00091552734375,0.029362289234995842,0.08697943389415741
0.04749999999999999,0.04173817113041878,0.0006103515625,0.029442792758345604,0.08545061200857162
0.04800000000000004,0.04171464219689369,0.0006103515625,0.02843228541314602,0.08651664108037949
0.04849999999999999,0.04169117286801338,0.0006103515625,0.027876919135451317,0.08654002100229263
0.049000000000000044,0.041667595505714417,0.00030517578125,0.026781421154737473,0.08595053851604462
0.04949999999999999,0.041644200682640076,0.00030517578125,0.02586234174668789,0.08717437833547592
0.050000000000000044,0.0416208878159523,0.0006103515625,0.02519279345870018,0.0863390788435936
0.05049999999999999,0.0415973998606205,0.0006103515625,0.024847721680998802,0.08648882061243057
0.051000000000000045,0.04157382249832153,0.0,0.024121137335896492,0.08643617480993271
0.05149999999999999,0.04155026376247406,0.00091552734375,0.02350904978811741,0.0859353169798851
0.052000000000000046,0.04152723401784897,0.00091552734375,0.022701898589730263,0.0865498036146164
0.05249999999999999,0.04150347411632538,0.00030517578125,0.022053252905607224,0.08568193763494492
0.05300000000000005,0.04148009419441223,0.0006103515625,0.02162369340658188,0.08558632433414459
0.05349999999999999,0.04145655781030655,0.0006103515625,0.020788582041859627,0.08594176173210144
0.05400000000000005,0.0414334237575531,0.0006103515625,0.02042515017092228,0.08617975562810898
0.05449999999999999,0.04140951856970787,0.0006103515625,0.019607815891504288,0.0861879214644432
0.05500000000000005,0.041386477649211884,0.0006103515625,0.018930144608020782,0.08659972995519638
0.055499999999999994,0.04136316478252411,0.0006103515625,0.01839081011712551,0.08605581521987915
0.05600000000000005,0.04133941978216171,0.0006103515625,0.01750769279897213,0.08665638417005539
0.056499999999999995,0.04131591320037842,0.00030517578125,0.017080403864383698,0.0854877308011055
0.05700000000000005,0.04129251092672348,0.0006103515625,0.01683703251183033,0.08641080558300018
0.057499999999999996,0.04126878082752228,0.0,0.016390670090913773,0.085870660841465
0.05800000000000005,0.041245073080062866,0.0006103515625,0.015755247324705124,0.08546290546655655
0.058499999999999996,0.04122168943285942,0.0,0.015693148598074913,0.08536937087774277
0.05900000000000005,0.041198424994945526,0.0006103515625,0.01476241648197174,0.08585856109857559
0.0595,0.041174907237291336,0.00091552734375,0.01418596226722002,0.08606568723917007
0.06000000000000005,0.04115169495344162,0.0006103515625,0.013821308501064777,0.08591050654649734
0.0605,0.04112790524959564,0.00030517578125,0.013648565858602524,0.08633964508771896
0.061000000000000054,0.04110463336110115,0.00091552734375,0.013076701201498508,0.08526810258626938
0.0615,0.04108118265867233,0.0006103515625,0.012868916615843773,0.0857013612985611
0.062000000000000055,0.041057758033275604,0.00091552734375,0.012869802303612232,0.0863535925745964
0.0625,0.04103418439626694,0.00091552734375,0.011555458419024944,0.08556239306926727
0.06299999999999994,0.041010838001966476,-0.00030517578125,0.011601042933762074,0.08598566800355911
0.0635,0.040987640619277954,0.00030517578125,0.011468121781945229,0.0850989893078804
0.06399999999999995,0.04096396639943123,0.00030517578125,0.010682198219001293,0.08523111045360565
0.0645,0.04094040021300316,0.00091552734375,0.010371960699558258,0.08504113554954529
0.06499999999999995,0.0409172922372818,0.00030517578125,0.010183773003518581,0.08527550101280212
0.0655,0.04089375212788582,0.0006103515625,0.00983215682208538,0.08610391616821289
0.06599999999999995,0.040869832038879395,0.00030517578125,0.00911659374833107,0.08557501435279846
0.0665,0.04084672033786774,0.0,0.009386230260133743,0.08579664677381516
0.06699999999999995,0.040823064744472504,0.00030517578125,0.00880985613912344,0.08590451627969742
0.0675,0.04079974442720413,0.0006103515625,0.008527667261660099,0.08555030822753906
0.06799999999999995,0.04077625274658203,0.00030517578125,0.008035742677748203,0.08575645089149475
0.0685,0.040753211826086044,0.0006103515625,0.007645907811820507,0.08568067103624344
0.06899999999999995,0.040729545056819916,0.00030517578125,0.007199115585535765,0.0850844755768776
0.0695,0.04070615395903587,0.00030517578125,0.007421975024044514,0.08606398850679398
0.06999999999999995,0.040682464838027954,0.0006103515625,0.007296980824321508,0.08494662493467331
0.07050000000000001,0.040658704936504364,0.0006103515625,0.006630074232816696,0.08514202386140823
0.07099999999999995,0.04063554108142853,0.00030517578125,0.006354120094329119,0.08539640158414841
0.07150000000000001,0.0406121201813221,0.0006103515625,0.006242432165890932,0.08529290556907654
0.07199999999999995,0.04058850556612015,0.00030517578125,0.005656431894749403,0.08556634187698364
0.07250000000000001,0.04056529328227043,0.00091552734375,0.005382408853620291,0.08526790142059326
0.07299999999999995,0.040541715919971466,0.0,0.005338556598871946,0.08464941382408142
0.07350000000000001,0.04051797837018967,-0.00030517578125,0.004868476185947657,0.08479788154363632
0.07399999999999995,0.040494538843631744,0.0006103515625,0.005267007742077112,0.08449437469244003
0.07450000000000001,0.04047086834907532,0.0,0.005014920141547918,0.08502943813800812
0.07499999999999996,0.04044732078909874,0.0006103515625,0.0044548348523676395,0.08473922312259674
0.07550000000000001,0.04042418301105499,0.0006103515625,0.004905630834400654,0.08513441681861877
0.07599999999999996,0.04040044546127319,-0.00030517578125,0.0042329877614974976,0.08415732532739639
0.07650000000000001,0.040377240628004074,0.0,0.0038833741564303637,0.0849328562617302
0.07699999999999996,0.04035351797938347,0.0006103515625,0.0037967136595398188,0.08447474241256714
0.07750000000000001,0.040330175310373306,0.0006103515625,0.003987916279584169,0.08518070727586746
0.07799999999999996,0.04030690714716911,0.00030517578125,0.0031702888663858175,0.08509401977062225
0.07850000000000001,0.040283430367708206,0.0006103515625,0.0037720375694334507,0.0849771499633789
0.07899999999999996,0.04026025906205177,0.001220703125,0.0035212805960327387,0.08495296537876129
0.07950000000000002,0.040236473083496094,0.0006103515625,0.0030120029114186764,0.08536192029714584
0.07999999999999996,0.040213219821453094,0.00091552734375,0.00294573325663805,0.08439699560403824
0.08050000000000002,0.04018989950418472,0.0006103515625,0.0029521691612899303,0.08420021086931229
0.08099999999999996,0.04016660526394844,0.0006103515625,0.0024548110086470842,0.08477483689785004
0.08150000000000002,0.04014281928539276,0.0006103515625,0.0019303862936794758,0.0841611921787262
0.08199999999999996,0.04011986404657364,0.0006103515625,0.0018187848618254066,0.08433307707309723
0.08250000000000002,0.0400962308049202,0.00030517578125,0.0021645466331392527,0.08452227711677551
0.08299999999999996,0.04007267206907272,0.00091552734375,0.0017050293972715735,0.08548767864704132
0.08350000000000002,0.04004909470677376,0.00030517578125,0.0013695472152903676,0.08417543023824692
0.08399999999999996,0.04002593457698822,0.0006103515625,0.0017209843499585986,0.08536817133426666
0.08450000000000002,0.04000224173069,0.00030517578125,0.0017385785467922688,0.08447477966547012
0.08499999999999996,0.03997896611690521,0.0006103515625,0.0011817310005426407,0.08472622185945511
0.08550000000000002,0.03995557501912117,0.00030517578125,0.0012403689324855804,0.08393838256597519
0.08599999999999997,0.03993207961320877,0.00030517578125,7.578768418170512e-05,0.08517272025346756
0.08650000000000002,0.03990856185555458,0.00030517578125,-2.624346780066844e-05,0.08356040716171265
0.08699999999999997,0.03988523781299591,0.00030517578125,0.00034511362900957465,0.08471331000328064
0.08750000000000002,0.03986179083585739,0.001220703125,0.00014242867473512888,0.08517464250326157
0.08799999999999997,0.03983811289072037,0.0006103515625,8.717701348359697e-06,0.08474846929311752
0.08850000000000002,0.039814770221710205,0.0006103515625,9.514261182630435e-05,0.08461315184831619
0.08899999999999997,0.03979148343205452,0.00030517578125,8.513610373483971e-05,0.08501813560724258
0.08950000000000002,0.03976765647530556,0.00030517578125,-0.0008156285621225834,0.08481942117214203
0.08999999999999997,0.03974435478448868,0.00030517578125,-0.000702623394317925,0.08533120155334473
0.09050000000000002,0.039721038192510605,0.00030517578125,-0.0010028185788542032,0.08452718704938889
0.09099999999999997,0.03969743102788925,0.0006103515625,-0.001036793109960854,0.08550446480512619
0.09150000000000003,0.03967387601733208,0.0006103515625,-0.0015444287564605474,0.08481339365243912
0.09199999999999997,0.03965045139193535,0.00030517578125,-0.001116873463615775,0.08436989784240723
0.09250000000000003,0.03962719067931175,0.00030517578125,-0.0011853217147290707,0.08480879664421082
0.09299999999999997,0.03960356488823891,0.0006103515625,-0.00136630330234766,0.08398418128490448
0.09350000000000003,0.03958041965961456,0.00091552734375,-0.0017227560747414827,0.08504439890384674
0.09399999999999997,0.03955671563744545,0.0006103515625,-0.0020451557356864214,0.08521218597888947
0.09450000000000003,0.039533182978630066,0.0006103515625,-0.002172606298699975,0.0850021094083786
0.09499999999999997,0.03950997814536095,-0.00030517578125,-0.0019419810269027948,0.08416476845741272
0.09550000000000003,0.03948681056499481,0.00030517578125,-0.0019657518714666367,0.08572351932525635
0.09599999999999997,0.03946307301521301,0.00030517578125,-0.002527531934902072,0.08466263860464096
0.09650000000000003,0.039439909160137177,0.00091552734375,-0.0022291766945272684,0.08522579818964005
0.09699999999999998,0.03941594809293747,0.00030517578125,-0.0025531803257763386,0.08387304842472076
0.09750000000000003,0.03939277306199074,0.001220703125,-0.00240260805003345,0.08506589382886887
0.09799999999999998,0.03936941176652908,0.00030517578125,-0.002604571869596839,0.08400730788707733
0.09850000000000003,0.03934585303068161,0.0,-0.0030274996533989906,0.08437523990869522
0.09899999999999998,0.03932258114218712,0.0006103515625,-0.0029886742122471333,0.0856717899441719
0.09950000000000003,0.03929903730750084,0.00030517578125,-0.0033584905322641134,0.08382266759872437
0.09999999999999998,0.039275530725717545,0.0006103515625,-0.004004542715847492,0.08369729667901993
0.10050000000000003,0.03925202414393425,0.00091552734375,-0.003410784527659416,0.08402539044618607
0.10099999999999998,0.03922855108976364,0.0006103515625,-0.0038958496879786253,0.08411151170730591
0.10150000000000003,0.03920485079288483,0.0006103515625,-0.0036981122102588415,0.08445965498685837
0.10199999999999998,0.03918175399303436,0.00030517578125,-0.003471324685961008,0.08390826731920242
0.10250000000000004,0.039157915860414505,0.0006103515625,-0.0037304062861949205,0.08472298085689545
0.10299999999999998,0.03913455456495285,0.0006103515625,-0.004167341627180576,0.08393881469964981
