Time [s],Lmtc [m],STIM [ ],fGM [N],fGL [N]
0.0,0.04354877769947052,0.0006103515625,0.25741371512413025,0.09472128003835678
0.0004999999999999449,0.04354894533753395,0.0006103515625,0.25780367851257324,0.09548366814851761
0.0010000000000000009,0.04354846104979515,0.0006103515625,0.25806954503059387,0.09493132680654526
0.0014999999999999458,0.04354878515005112,0.0006103515625,0.257845401763916,0.0949430838227272
0.0020000000000000018,0.0435485802590847,0.0006103515625,0.2578572928905487,0.09525745362043381
0.0024999999999999467,0.04354878515005112,0.0006103515625,0.25798797607421875,0.09570985287427902
0.0030000000000000027,0.0435485765337944,0.0,0.2577761709690094,0.09484299272298813
0.0034999999999999476,0.04354875162243843,0.0006103515625,0.25816982984542847,0.09578299522399902
0.0040000000000000036,0.04354873672127724,0.0006103515625,0.2584710717201233,0.0955018401145935
0.0044999999999999485,0.04354862496256828,-0.0006103515625,0.2576133608818054,0.09493914991617203
0.0050000000000000044,0.04354867339134216,0.00030517578125,0.2577526867389679,0.09590867906808853
0.005499999999999949,0.04354863241314888,0.00091552734375,0.2580760717391968,0.09586376696825027
0.006000000000000005,0.04354849085211754,0.00030517578125,0.25804153084754944,0.09478134661912918
0.00649999999999995,0.04354855418205261,0.0,0.25749245285987854,0.0954553484916687
0.007000000000000006,0.04354840889573097,0.00030517578125,0.2569151222705841,0.09529821574687958
0.007499999999999951,0.04354795068502426,0.00091552734375,0.2549266219139099,0.0964081883430481
0.008000000000000007,0.043546367436647415,0.0006103515625,0.2520350217819214,0.09576266258955002
0.008499999999999952,0.04354357346892357,0.00030517578125,0.2468305081129074,0.0963040366768837
0.009000000000000008,0.043538328260183334,0.00030517578125,0.24067530035972595,0.09631308168172836
0.009499999999999953,0.04353170469403267,0.00091552734375,0.23345836997032166,0.09580517560243607
0.010000000000000009,0.04352220520377159,0.0006103515625,0.22430464625358582,0.09524286538362503
0.010499999999999954,0.043510280549526215,0.00030517578125,0.215926393866539,0.09542244672775269
0.01100000000000001,0.04349641874432564,0.0006103515625,0.2072644680738449,0.09505097568035126
0.011499999999999955,0.04348038509488106,0.0006103515625,0.19857440888881683,0.09555225074291229
0.01200000000000001,0.04346286877989769,0.0006103515625,0.19065164029598236,0.09629347175359726
0.012499999999999956,0.043444059789180756,0.00030517578125,0.18377763032913208,0.09476926922798157
0.013000000000000012,0.04342406243085861,0.0006103515625,0.17708773910999298,0.09536881744861603
0.013499999999999956,0.043403394520282745,0.0006103515625,0.17165322601795197,0.0955706387758255
0.014000000000000012,0.04338233917951584,0.00091552734375,0.16712923347949982,0.09543707966804504
0.014499999999999957,0.04336109384894371,0.0006103515625,0.1637241095304489,0.094946950674057
0.015000000000000013,0.04333953186869621,0.00030517578125,0.1591697335243225,0.09422987699508667
0.015499999999999958,0.043318070471286774,0.00030517578125,0.1557406336069107,0.09495063871145248
0.016000000000000014,0.043296948075294495,0.00030517578125,0.1527203917503357,0.09435254335403442
0.01649999999999996,0.043275926262140274,0.00030517578125,0.1489323228597641,0.09384149312973022
0.017000000000000015,0.04325512796640396,0.00030517578125,0.1460554003715515,0.09308875352144241
0.01749999999999996,0.04323462396860123,0.00091552734375,0.14229248464107513,0.09205757081508636
0.018000000000000016,0.043213654309511185,0.0,0.13913418352603912,0.09258493781089783
0.01849999999999996,0.04319341108202934,0.00030517578125,0.13590697944164276,0.09195395559072495
0.019000000000000017,0.04317322373390198,0.0006103515625,0.13301227986812592,0.09196946024894714
0.019499999999999962,0.043152324855327606,0.0,0.12997601926326752,0.09200499206781387
0.020000000000000018,0.043131787329912186,0.00030517578125,0.1273161917924881,0.09083301573991776
0.020499999999999963,0.04311151057481766,0.0006103515625,0.12469140440225601,0.08978655934333801
0.02100000000000002,0.04309100657701492,0.0006103515625,0.1215607300400734,0.09162384271621704
0.021499999999999964,0.0430702269077301,0.0006103515625,0.11894167214632034,0.09011603891849518
0.02200000000000002,0.043050095438957214,0.00030517578125,0.11601322889328003,0.09068374335765839
0.022499999999999964,0.04302942752838135,0.00030517578125,0.11394892632961273,0.09057687968015671
0.02300000000000002,0.04300915077328682,0.0,0.1110592633485794,0.09034135192632675
0.023499999999999965,0.04298872873187065,0.0006103515625,0.1089051365852356,0.09010070562362671
0.02400000000000002,0.04296836256980896,0.001220703125,0.10675903409719467,0.09041131287813187
0.024499999999999966,0.04294773191213608,0.00030517578125,0.10379458218812943,0.08944881707429886
0.025000000000000022,0.04292764142155647,0.00030517578125,0.10197607427835464,0.0891956016421318
0.025499999999999967,0.04290691390633583,0.0,0.09894612431526184,0.0889454111456871
0.026000000000000023,0.04288627579808235,0.00030517578125,0.09683601558208466,0.08895003795623779
0.026499999999999968,0.042865850031375885,0.0006103515625,0.09476208686828613,0.08795923739671707
0.027000000000000024,0.042845468968153,0.0006103515625,0.09335648268461227,0.08832219243049622
0.02749999999999997,0.04282489791512489,0.0006103515625,0.09144988656044006,0.08847390115261078
0.028000000000000025,0.04280419275164604,0.00030517578125,0.08886972814798355,0.08819165825843811
0.02849999999999997,0.0427837148308754,0.0006103515625,0.08783835917711258,0.0884028822183609
0.029000000000000026,0.042763322591781616,0.0006103515625,0.08636754751205444,0.08895789086818695
0.02949999999999997,0.04274292290210724,0.0,0.0848478376865387,0.08777373284101486
0.030000000000000027,0.04272245243191719,0.0,0.0829087644815445,0.08817536383867264
0.03049999999999997,0.04270198196172714,0.00030517578125,0.08116695284843445,0.08764950186014175
0.031000000000000028,0.042681410908699036,0.00030517578125,0.07997597754001617,0.08826997131109238
0.03149999999999997,0.04266120120882988,0.0006103515625,0.07838506996631622,0.08752265572547913
0.03200000000000003,0.04264076054096222,0.00091552734375,0.07655869424343109,0.08862746506929398
0.03249999999999997,0.0426202192902565,0.0,0.07588318735361099,0.08734197914600372
0.03300000000000003,0.04260004684329033,0.0006103515625,0.07437417656183243,0.08802365511655807
0.033499999999999974,0.04257950931787491,0.0006103515625,0.07295473664999008,0.08742281794548035
0.03400000000000003,0.04255898296833038,0.0006103515625,0.0716523826122284,0.0881657749414444
0.034499999999999975,0.04253862798213959,0.00030517578125,0.0703970417380333,0.08826681226491928
0.03500000000000003,0.04251828417181969,0.00091552734375,0.06859531998634338,0.08867616206407547
0.035499999999999976,0.04249795898795128,0.0,0.06756617873907089,0.08860953897237778
0.03600000000000003,0.04247742518782616,0.0,0.06653903424739838,0.08805850893259048
0.03649999999999998,0.042457133531570435,-0.00030517578125,0.06487478315830231,0.08853017538785934
0.03700000000000003,0.042436592280864716,0.0006103515625,0.06369871646165848,0.08806012570858002
0.03749999999999998,0.04241626337170601,0.0006103515625,0.06274230778217316,0.08830849081277847
0.038000000000000034,0.042395591735839844,0.00030517578125,0.061210669577121735,0.08835911005735397
0.03849999999999998,0.0423751026391983,0.0006103515625,0.05975247919559479,0.08856184780597687
0.039000000000000035,0.04235461354255676,0.00030517578125,0.05904364958405495,0.0879669114947319
0.03949999999999998,0.04233453795313835,0.00030517578125,0.05774511769413948,0.08831791579723358
0.040000000000000036,0.04231389984488487,0.00030517578125,0.056102652102708817,0.08845537155866623
0.04049999999999998,0.0422937236726284,0.0006103515625,0.05534133315086365,0.08927211910486221
0.041000000000000036,0.04227317124605179,0.0006103515625,0.05399121344089508,0.08838676661252975
0.04149999999999998,0.04225267842411995,0.00091552734375,0.053141579031944275,0.0881321057677269
0.04200000000000004,0.04223231226205826,0.0006103515625,0.052425235509872437,0.08803343027830124
0.04249999999999998,0.04221177101135254,0.00030517578125,0.05152662843465805,0.08895228058099747
0.04300000000000004,0.042191281914711,0.00030517578125,0.04999320209026337,0.08862088620662689
0.04349999999999998,0.042170971632003784,0.00030517578125,0.04894082248210907,0.08816715329885483
0.04400000000000004,0.0421505905687809,0.00091552734375,0.04790603369474411,0.08779725432395935
0.044499999999999984,0.042130306363105774,0.0006103515625,0.047243230044841766,0.08859793096780777
0.04500000000000004,0.04210984706878662,0.00030517578125,0.0457671582698822,0.08719169348478317
0.045499999999999985,0.04208935797214508,0.00030517578125,0.045030463486909866,0.08809555321931839
0.04600000000000004,0.04206879436969757,0.00091552734375,0.04408868029713631,0.08785369247198105
0.046499999999999986,0.04204799234867096,-0.00030517578125,0.043099772185087204,0.08776960521936417
0.04700000000000004,0.042027805000543594,0.00030517578125,0.042156882584095,0.08735965192317963
0.04749999999999999,0.04200753569602966,0.00030517578125,0.04115895926952362,0.08807836472988129
0.04800000000000004,0.041986919939517975,0.0006103515625,0.0402844175696373,0.08691270649433136
0.04849999999999999,0.04196665436029434,0.0006103515625,0.03947894647717476,0.08776567131280899
0.049000000000000044,0.041945964097976685,-0.00030517578125,0.038583893328905106,0.08750439435243607
0.04949999999999999,0.04192574694752693,0.00030517578125,0.037730347365140915,0.0873468741774559
0.050000000000000044,0.04190518707036972,0.00030517578125,0.03704390674829483,0.08753017336130142
0.05049999999999999,0.04188480228185654,0.0,0.0359896719455719,0.08705974370241165
0.051000000000000045,0.04186439886689186,0.00030517578125,0.03554349020123482,0.08671855181455612
0.05149999999999999,0.04184421896934509,0.0006103515625,0.034839630126953125,0.08665137737989426
0.052000000000000046,0.04182388260960579,0.00091552734375,0.03347025811672211,0.08711018413305283
0.05249999999999999,0.04180367663502693,0.00030517578125,0.03305845707654953,0.08674468100070953
0.05300000000000005,0.04178312048316002,0.0,0.0319208949804306,0.08669482171535492
0.05349999999999999,0.04176276549696922,0.0006103515625,0.031153390184044838,0.08667323738336563
0.05400000000000005,0.04174237698316574,0.0006103515625,0.03129453584551811,0.08796021342277527
0.05449999999999999,0.041721709072589874,-0.00030517578125,0.029868407174944878,0.0867675244808197
0.05500000000000005,0.04170176014304161,0.00030517578125,0.029286690056324005,0.08682717382907867
0.055499999999999994,0.04168101027607918,-0.00030517578125,0.02874075435101986,0.08785565197467804
0.05600000000000005,0.041660696268081665,0.0006103515625,0.028105683624744415,0.0867043063044548
0.056499999999999995,0.041639938950538635,-0.00030517578125,0.027199074625968933,0.08771758526563644
0.05700000000000005,0.04161969944834709,0.0006103515625,0.026455678045749664,0.08692849427461624
0.057499999999999996,0.04159929230809212,0.0006103515625,0.02570638805627823,0.08721532672643661
0.05800000000000005,0.04157893359661102,0.0006103515625,0.025303104892373085,0.08771485835313797
0.058499999999999996,0.04155832529067993,0.0006103515625,0.02431616745889187,0.08750716596841812
0.05900000000000005,0.041537974029779434,0.00030517578125,0.024036843329668045,0.08711915463209152
0.0595,0.04151760786771774,0.0006103515625,0.02388514019548893,0.08733700960874557
0.06000000000000005,0.041497379541397095,0.00030517578125,0.023023538291454315,0.08734835684299469
0.0605,0.041476938873529434,0.00091552734375,0.022470545023679733,0.08722201734781265
0.061000000000000054,0.041456546634435654,0.0006103515625,0.022098420187830925,0.08684320002794266
0.0615,0.04143604636192322,0.0,0.021603211760520935,0.08636266738176346
0.062000000000000055,0.04141553118824959,0.0006103515625,0.020733671262860298,0.08654733747243881
0.0625,0.04139549657702446,0.0,0.02035774476826191,0.08613793551921844
0.06299999999999994,0.04137500748038292,0.00030517578125,0.01975622959434986,0.086591437458992
0.0635,0.041354306042194366,0.0006103515625,0.01909397356212139,0.08667614310979843
0.06399999999999995,0.041333992034196854,0.00030517578125,0.019015217199921608,0.0863446518778801
0.0645,0.04131332039833069,0.0006103515625,0.01824836991727352,0.08626005053520203
0.06499999999999995,0.04129280894994736,0.00091552734375,0.018172144889831543,0.08611428737640381
0.0655,0.04127239063382149,0.0006103515625,0.01749512553215027,0.08557771891355515
0.06599999999999995,0.0412522628903389,0.00091552734375,0.01678316481411457,0.08657103031873703
0.0665,0.04123137891292572,0.0006103515625,0.01643586903810501,0.0858214944601059
0.06699999999999995,0.041211262345314026,0.00030517578125,0.01651204377412796,0.08577943593263626
0.0675,0.04119080305099487,0.00030517578125,0.016407592222094536,0.08600156009197235
0.06799999999999995,0.04117009788751602,0.00030517578125,0.01568973809480667,0.086478091776371
0.0685,0.041149698197841644,0.0006103515625,0.015559974126517773,0.08641596883535385
0.06899999999999995,0.041129644960165024,0.0006103515625,0.015090297907590866,0.08578909933567047
0.0695,0.041109099984169006,-0.00030517578125,0.015140186995267868,0.08574189990758896
0.06999999999999995,0.04108873009681702,0.0006103515625,0.014282378368079662,0.08530716598033905
0.07050000000000001,0.041068464517593384,0.00030517578125,0.014172698371112347,0.08532559871673584
0.07099999999999995,0.0410478413105011,0.00030517578125,0.013585709035396576,0.08634049445390701
0.07150000000000001,0.04102768376469612,0.00030517578125,0.013241573236882687,0.08584606647491455
0.07199999999999995,0.04100731760263443,0.00030517578125,0.012956301681697369,0.08630386739969254
0.07250000000000001,0.04098678007721901,0.0,0.012588144280016422,0.08589135855436325
0.07299999999999995,0.0409664660692215,0.0006103515625,0.012481102719902992,0.08596596121788025
0.07350000000000001,0.040946003049612045,0.0006103515625,0.01209024153649807,0.08601932972669601
0.07399999999999995,0.040925607085227966,0.00030517578125,0.011959630064666271,0.0865224301815033
0.07450000000000001,0.04090513288974762,0.00091552734375,0.011372027918696404,0.08589211106300354
0.07499999999999996,0.040884461253881454,0.0006103515625,0.010997402481734753,0.08643283694982529
0.07550000000000001,0.04086432605981827,0.0006103515625,0.010243021883070469,0.08556395024061203
0.07599999999999996,0.040843695402145386,0.00091552734375,0.010401800274848938,0.08621148765087128
0.07650000000000001,0.0408235602080822,0.0006103515625,0.009917503222823143,0.08559572696685791
0.07699999999999996,0.04080291464924812,0.0,0.010380394756793976,0.08550407737493515
0.07750000000000001,0.04078242927789688,0.0006103515625,0.009918970987200737,0.08544515073299408
0.07799999999999996,0.040761880576610565,0.00030517578125,0.009795949794352055,0.08472158014774323
0.07850000000000001,0.04074155539274216,0.00091552734375,0.009471477009356022,0.08638670295476913
0.07899999999999996,0.04072117060422897,0.0006103515625,0.008594430051743984,0.0860561653971672
0.07950000000000002,0.040701042860746384,0.0006103515625,0.0083828866481781,0.08595261722803116
0.07999999999999996,0.040680401027202606,0.0006103515625,0.0077355182729661465,0.08572974801063538
0.08050000000000002,0.040660299360752106,0.0006103515625,0.007808918133378029,0.08600449562072754
0.08099999999999996,0.04063960909843445,0.0006103515625,0.007591812871396542,0.0854385569691658
0.08150000000000002,0.0406191349029541,0.00030517578125,0.007703150622546673,0.08668987452983856
0.08199999999999996,0.04059886187314987,0.00030517578125,0.007121536880731583,0.08589041978120804
0.08250000000000002,0.040578391402959824,0.00030517578125,0.0070364647544920444,0.08659215271472931
0.08299999999999996,0.04055780917406082,0.0,0.006554051302373409,0.0859915018081665
0.08350000000000002,0.04053736478090286,0.00030517578125,0.006394978612661362,0.08565187454223633
0.08399999999999996,0.04051707684993744,0.0006103515625,0.006123347207903862,0.08638937771320343
0.08450000000000002,0.04049649089574814,0.0006103515625,0.006095619406551123,0.08640728890895844
0.08499999999999996,0.0404759980738163,0.00030517578125,0.005800676066428423,0.08597012609243393
0.08550000000000002,0.0404551699757576,0.00091552734375,0.005884839221835136,0.08532975614070892
0.08599999999999997,0.040434692054986954,0.0006103515625,0.005888389889150858,0.08562836796045303
0.08650000000000002,0.04041457921266556,0.0006103515625,0.00567949702963233,0.08606694638729095
0.08699999999999997,0.04039400443434715,0.00091552734375,0.005253161303699017,0.08586400002241135
0.08750000000000002,0.04037385433912277,0.00091552734375,0.005535209085792303,0.08665429055690765
0.08799999999999997,0.04035297781229019,0.0006103515625,0.005510389804840088,0.08560509234666824
0.08850000000000002,0.04033292457461357,0.0006103515625,0.0050282590091228485,0.08573439717292786
0.08899999999999997,0.04031283035874367,0.00030517578125,0.004530291073024273,0.08621229231357574
0.08950000000000002,0.040292393416166306,0.00091552734375,0.00466552097350359,0.08728974312543869
0.08999999999999997,0.04027176648378372,0.00091552734375,0.004626357462257147,0.0854499340057373
0.09050000000000002,0.040251486003398895,0.00091552734375,0.004279236774891615,0.0859658494591713
0.09099999999999997,0.040231142193078995,0.0006103515625,0.004519375506788492,0.08563368767499924
0.09150000000000003,0.04021075367927551,0.00091552734375,0.004065204411745071,0.08627627044916153
0.09199999999999997,0.04019029438495636,0.00030517578125,0.0038979279343038797,0.08647305518388748
0.09250000000000003,0.04017003998160362,0.00030517578125,0.003768037771806121,0.08658529072999954
0.09299999999999997,0.04014983028173447,0.0006103515625,0.0034541019704192877,0.08569636940956116
0.09350000000000003,0.0401291623711586,0.00030517578125,0.003050246275961399,0.08526591211557388
0.09399999999999997,0.04010879993438721,0.0,0.0030224164947867393,0.08624488860368729
0.09450000000000003,0.0400884635746479,0.00030517578125,0.0025385040789842606,0.08606472611427307
0.09499999999999997,0.04006798192858696,0.0006103515625,0.0028115431778132915,0.08573613315820694
0.09550000000000003,0.04004747048020363,0.0006103515625,0.0025745879393070936,0.08624260127544403
0.09599999999999997,0.040027178823947906,0.00030517578125,0.003043889766559005,0.0870937705039978
0.09650000000000003,0.04000658169388771,0.0006103515625,0.0024808491580188274,0.08539656549692154
0.09699999999999998,0.03998647630214691,0.00091552734375,0.0021565125789493322,0.08678834140300751
0.09750000000000003,0.03996598720550537,0.001220703125,0.002078432124108076,0.08561642467975616
0.09799999999999998,0.039945635944604874,0.00030517578125,0.001508834189735353,0.0855121985077858
0.09850000000000003,0.03992510214447975,0.0006103515625,0.001431221840903163,0.0861864686012268
0.09899999999999998,0.03990500047802925,0.00091552734375,0.001152888871729374,0.08647327125072479
0.09950000000000003,0.03988441452383995,0.00091552734375,0.0009064392652362585,0.08572204411029816
0.09999999999999998,0.03986404836177826,0.00091552734375,0.0008071901393122971,0.08575456589460373
0.10050000000000003,0.03984353318810463,0.0006103515625,0.0006345703732222319,0.08560921251773834
0.10099999999999998,0.03982311487197876,0.0006103515625,0.0006909437943249941,0.0853513777256012
0.10150000000000003,0.03980245441198349,0.00030517578125,-0.00017170156934298575,0.08527415990829468
0.10199999999999998,0.03978244587779045,0.0,-0.0002125381288351491,0.0858222171664238
0.10250000000000004,0.03976196423172951,0.0006103515625,-0.00010440430924063548,0.08660401403903961
0.10299999999999998,0.03974149748682976,0.00030517578125,-6.547814700752497e-05,0.08569248020648956
0.10350000000000004,0.0397210419178009,0.00030517578125,-0.00022226624423637986,0.08533213287591934
0.10399999999999998,0.0397004559636116,0.0006103515625,-0.00021130226377863437,0.0857502743601799
