Time [s],Lmtc [m],STIM [ ],fGM [N],fGL [N]
0.0,0.04354862868785858,0.00030517578125,0.26588666439056396,0.09313828498125076
0.0004999999999999449,0.04354891553521156,0.00030517578125,0.2663685977458954,0.09343641251325607
0.0010000000000000009,0.04354889318346977,0.00030517578125,0.26559552550315857,0.09298000484704971
0.0014999999999999458,0.04354870691895485,0.001220703125,0.26580822467803955,0.09353040903806686
0.0020000000000000018,0.04354854300618172,-0.00030517578125,0.26597723364830017,0.09258747100830078
0.0024999999999999467,0.04354891553521156,0.001220703125,0.2661295533180237,0.09351915121078491
0.0030000000000000027,0.043548669666051865,0.0006103515625,0.2658146321773529,0.09391359984874725
0.0034999999999999476,0.043548695743083954,0.0006103515625,0.2665121257305145,0.09348709136247635
0.0040000000000000036,0.043548792600631714,0.00030517578125,0.2660643756389618,0.09383730590343475
0.0044999999999999485,0.04354839399456978,0.00091552734375,0.26590561866760254,0.09353577345609665
0.0050000000000000044,0.04354887455701828,0.00030517578125,0.26666462421417236,0.09399640560150146
0.005499999999999949,0.04354861378669739,0.00091552734375,0.2661992609500885,0.09330977499485016
0.006000000000000005,0.043548792600631714,0.00030517578125,0.2662171721458435,0.09450724720954895
0.00649999999999995,0.043548278510570526,0.00030517578125,0.2654666602611542,0.09279893338680267
0.007000000000000006,0.043548498302698135,0.0006103515625,0.2654153108596802,0.09379919618368149
0.007499999999999951,0.043548014014959335,0.0006103515625,0.26424431800842285,0.09362374991178513
0.008000000000000007,0.04354739934206009,0.00030517578125,0.2622360587120056,0.09324037283658981
0.008499999999999952,0.043545451015233994,0.00030517578125,0.259291410446167,0.09334905445575714
0.009000000000000008,0.04354225471615791,0.0006103515625,0.2546107769012451,0.09417493641376495
0.009499999999999953,0.04353725165128708,0.00030517578125,0.24836446344852448,0.09362965077161789
0.010000000000000009,0.04353015869855881,0.0006103515625,0.24127815663814545,0.09449832886457443
0.010499999999999954,0.04352123290300369,0.0006103515625,0.23363149166107178,0.09384259581565857
0.01100000000000001,0.04351022094488144,0.0,0.22576457262039185,0.09496916085481644
0.011499999999999955,0.04349741339683533,0.0006103515625,0.21747200191020966,0.09386849403381348
0.01200000000000001,0.04348362237215042,0.0006103515625,0.21057523787021637,0.09447130560874939
0.012499999999999956,0.04346863925457001,0.0006103515625,0.20377643406391144,0.0938139483332634
0.013000000000000012,0.04345257952809334,0.00030517578125,0.1981486976146698,0.09345424920320511
0.013499999999999956,0.04343627393245697,0.0006103515625,0.19216535985469818,0.09335554391145706
0.014000000000000012,0.04341953992843628,0.00030517578125,0.18769115209579468,0.09449005872011185
0.014499999999999957,0.04340219870209694,0.0006103515625,0.1833987832069397,0.09291774034500122
0.015000000000000013,0.04338508099317551,0.00091552734375,0.17951571941375732,0.09348654747009277
0.015499999999999958,0.04336851090192795,0.00030517578125,0.1756642609834671,0.09330043941736221
0.016000000000000014,0.04335172101855278,0.0006103515625,0.17231927812099457,0.09291806817054749
0.01649999999999996,0.0433349609375,0.00091552734375,0.16872024536132812,0.09228873997926712
0.017000000000000015,0.04331819713115692,0.0006103515625,0.1659165769815445,0.09213335812091827
0.01749999999999996,0.04330144077539444,0.00030517578125,0.1628318876028061,0.09274765849113464
0.018000000000000016,0.043285153806209564,0.00091552734375,0.15996026992797852,0.09141626954078674
0.01849999999999996,0.04326864704489708,0.00030517578125,0.15689176321029663,0.09161824733018875
0.019000000000000017,0.04325211048126221,0.00030517578125,0.15404142439365387,0.09107059240341187
0.019499999999999962,0.04323609545826912,0.0006103515625,0.15079128742218018,0.09127780050039291
0.020000000000000018,0.04321939870715141,0.00030517578125,0.14785389602184296,0.09027095139026642
0.020499999999999963,0.043203555047512054,0.00091552734375,0.14576418697834015,0.09075193107128143
0.02100000000000002,0.04318692162632942,0.00030517578125,0.14290165901184082,0.08972704410552979
0.021499999999999964,0.04317064210772514,0.00030517578125,0.14012084901332855,0.08868643641471863
0.02200000000000002,0.04315441846847534,0.00091552734375,0.13830997049808502,0.08851210027933121
0.022499999999999964,0.043138179928064346,0.00091552734375,0.13604241609573364,0.08974646776914597
0.02300000000000002,0.043121714144945145,0.0006103515625,0.13336589932441711,0.08886255323886871
0.023499999999999965,0.043105386197566986,0.0006103515625,0.13102121651172638,0.08971147239208221
0.02400000000000002,0.04308922961354256,0.00030517578125,0.12888064980506897,0.08954396098852158
0.024499999999999966,0.0430728979408741,0.00030517578125,0.12684357166290283,0.0894196480512619
0.025000000000000022,0.043056733906269073,0.0006103515625,0.1246749609708786,0.0891086533665657
0.025499999999999967,0.043040573596954346,0.0006103515625,0.12266340851783752,0.08979108184576035
0.026000000000000023,0.043024249374866486,0.00030517578125,0.12048658728599548,0.08966154605150223
0.026499999999999968,0.04300765320658684,0.0,0.11841480433940887,0.08914000540971756
0.027000000000000024,0.04299163445830345,0.00030517578125,0.1166783943772316,0.08875007927417755
0.02749999999999997,0.04297524318099022,0.0006103515625,0.11515115201473236,0.08934858441352844
0.028000000000000025,0.04295901581645012,0.0006103515625,0.11305133253335953,0.08897405862808228
0.02849999999999997,0.04294281080365181,0.00030517578125,0.11155088990926743,0.0890636071562767
0.029000000000000026,0.04292645305395126,0.0006103515625,0.10980858653783798,0.08836126327514648
0.02949999999999997,0.042910099029541016,0.0006103515625,0.10756734013557434,0.08908970654010773
0.030000000000000027,0.042893942445516586,0.0006103515625,0.105862095952034,0.08850906789302826
0.03049999999999997,0.04287797957658768,0.00030517578125,0.10416137427091599,0.08854591101408005
0.031000000000000028,0.04286156967282295,0.0,0.10269547998905182,0.08894284069538116
0.03149999999999997,0.04284528270363808,0.0,0.1012461930513382,0.08901562541723251
0.03200000000000003,0.04282886162400246,0.00030517578125,0.09971486032009125,0.08915989100933075
0.03249999999999997,0.042812664061784744,0.0006103515625,0.09836617112159729,0.08802530914545059
0.03300000000000003,0.04279655963182449,0.00030517578125,0.09653489291667938,0.08888973295688629
0.033499999999999974,0.04277985915541649,0.0,0.09529568254947662,0.08894937485456467
0.03400000000000003,0.042763806879520416,0.00030517578125,0.09382174909114838,0.08941174298524857
0.034499999999999975,0.04274725914001465,0.00030517578125,0.09175099432468414,0.08969827741384506
0.03500000000000003,0.0427311472594738,0.0006103515625,0.0910629853606224,0.08885860443115234
0.035499999999999976,0.04271475225687027,0.00030517578125,0.08974967896938324,0.08907763659954071
0.03600000000000003,0.04269871488213539,0.0006103515625,0.0884876698255539,0.089115671813488
0.03649999999999998,0.042682331055402756,0.00030517578125,0.08747811615467072,0.089752197265625
0.03700000000000003,0.042666081339120865,0.00030517578125,0.08609311282634735,0.09000878781080246
0.03749999999999998,0.042650170624256134,0.0006103515625,0.08493801951408386,0.08858422189950943
0.038000000000000034,0.0426337793469429,0.00091552734375,0.08318278938531876,0.08946914225816727
0.03849999999999998,0.04261770099401474,0.00030517578125,0.0821860209107399,0.08765143901109695
0.039000000000000035,0.042601585388183594,0.00030517578125,0.08045168220996857,0.08858672529459
0.03949999999999998,0.042585309594869614,0.00091552734375,0.07976032048463821,0.08833617717027664
0.040000000000000036,0.04256892576813698,0.00030517578125,0.07826877385377884,0.08943258225917816
0.04049999999999998,0.04255303740501404,0.0006103515625,0.07758896052837372,0.08874592930078506
0.041000000000000036,0.04253672435879707,0.00091552734375,0.07723265141248703,0.08890890330076218
0.04149999999999998,0.04252021387219429,0.00030517578125,0.07496213912963867,0.08892741799354553
0.04200000000000004,0.04250385984778404,0.00091552734375,0.07417043298482895,0.0886576697230339
0.04249999999999998,0.04248790442943573,0.0006103515625,0.07268985360860825,0.08878125250339508
0.04300000000000004,0.042471665889024734,0.0006103515625,0.07144461572170258,0.08933443576097488
0.04349999999999998,0.04245542362332344,0.00030517578125,0.07058905810117722,0.08875777572393417
0.04400000000000004,0.04243931174278259,0.00091552734375,0.06939836591482162,0.08877190202474594
0.044499999999999984,0.042422816157341,0.0006103515625,0.06844820827245712,0.08905399590730667
0.04500000000000004,0.042406558990478516,0.0006103515625,0.06782810389995575,0.08810866624116898
0.045499999999999985,0.042390335351228714,0.00030517578125,0.06588949263095856,0.08833038806915283
0.04600000000000004,0.042374227195978165,0.0006103515625,0.06520432978868484,0.08870837837457657
0.046499999999999986,0.042357828468084335,0.00030517578125,0.06418666243553162,0.08726907521486282
0.04700000000000004,0.04234173521399498,0.00091552734375,0.06304669380187988,0.08781756460666656
0.04749999999999999,0.042325638234615326,0.0006103515625,0.06205093860626221,0.08905141800642014
0.04800000000000004,0.04230905696749687,0.00091552734375,0.061033036559820175,0.08740555495023727
0.04849999999999999,0.04229291155934334,0.00091552734375,0.0601777546107769,0.08742126077413559
0.049000000000000044,0.042276572436094284,0.0006103515625,0.05929196998476982,0.08851078897714615
0.04949999999999999,0.04226045310497284,0.001220703125,0.05838656425476074,0.0882071703672409
0.050000000000000044,0.042244233191013336,0.0006103515625,0.05696789547801018,0.08819449692964554
0.05049999999999999,0.04222812131047249,-0.00030517578125,0.0563327819108963,0.08852807432413101
0.051000000000000045,0.04221170395612717,0.00030517578125,0.05564442649483681,0.08866681158542633
0.05149999999999999,0.042195480316877365,0.00030517578125,0.054353825747966766,0.08762327581644058
0.052000000000000046,0.04217899590730667,0.00152587890625,0.05361621826887131,0.08847671747207642
0.05249999999999999,0.042162951081991196,0.001220703125,0.05263067036867142,0.0885256752371788
0.05300000000000005,0.04214669391512871,0.0006103515625,0.05192266032099724,0.08745376765727997
0.05349999999999999,0.04213060438632965,0.0,0.05128702521324158,0.08802547305822372
0.05400000000000005,0.04211430996656418,0.0006103515625,0.05009506270289421,0.0872267559170723
0.05449999999999999,0.04209790378808975,0.0,0.049385253340005875,0.08816085010766983
0.05500000000000005,0.04208134114742279,0.0006103515625,0.04866174980998039,0.08714284002780914
0.055499999999999994,0.04206544905900955,0.0006103515625,0.047715865075588226,0.08794471621513367
0.05600000000000005,0.04204905405640602,0.0006103515625,0.04744543507695198,0.08637313544750214
0.056499999999999995,0.0420328713953495,0.00030517578125,0.04619646817445755,0.08761943131685257
0.05700000000000005,0.04201648011803627,0.00030517578125,0.045427847653627396,0.08797081559896469
0.057499999999999996,0.0420004166662693,0.0,0.04494254291057587,0.08796998113393784
0.05800000000000005,0.04198390245437622,0.00030517578125,0.04380613565444946,0.08724083751440048
0.058499999999999996,0.04196777567267418,0.0006103515625,0.0437341034412384,0.08783301711082458
0.05900000000000005,0.04195140674710274,0.0006103515625,0.04255891963839531,0.08768400549888611
0.0595,0.04193553328514099,0.00091552734375,0.0416317954659462,0.08771002292633057
0.06000000000000005,0.04191933199763298,0.00030517578125,0.04139399528503418,0.08841929584741592
0.0605,0.04190327227115631,0.0,0.0407821387052536,0.08787551522254944
0.061000000000000054,0.04188677668571472,0.0006103515625,0.03987378254532814,0.0874868705868721
0.0615,0.041870489716529846,0.0,0.039356816560029984,0.08830953389406204
0.062000000000000055,0.04185423254966736,0.0006103515625,0.03855057433247566,0.08647890388965607
0.0625,0.04183797910809517,0.00091552734375,0.03821966052055359,0.08833204209804535
0.06299999999999994,0.041821930557489395,0.0006103515625,0.0378342866897583,0.08828504383563995
0.0635,0.041805434972047806,0.00091552734375,0.036734919995069504,0.0874432772397995
0.06399999999999995,0.04178939759731293,0.00091552734375,0.03597942739725113,0.08690837025642395
0.0645,0.04177305847406387,0.00030517578125,0.03538016229867935,0.08692371845245361
0.06499999999999995,0.041757047176361084,0.0006103515625,0.0347575843334198,0.0865665003657341
0.0655,0.041740886867046356,0.00030517578125,0.034583330154418945,0.08659133315086365
0.06599999999999995,0.041724883019924164,0.00091552734375,0.03368174284696579,0.0871778279542923
0.0665,0.0417083278298378,0.0,0.03322162479162216,0.0869995653629303
0.06699999999999995,0.04169240593910217,0.0,0.03266084939241409,0.08732511103153229
0.0675,0.04167591780424118,0.0006103515625,0.03218724578619003,0.08677832782268524
0.06799999999999995,0.04165945202112198,0.0006103515625,0.031968798488378525,0.0870988667011261
0.0685,0.04164334759116173,0.0006103515625,0.03133421391248703,0.08668794482946396
0.06899999999999995,0.041627008467912674,0.00030517578125,0.030437828972935677,0.0877387523651123
0.0695,0.04161101207137108,0.00091552734375,0.03060990758240223,0.08693191409111023
0.06999999999999995,0.041594695299863815,0.0006103515625,0.02963540516793728,0.08749925345182419
0.07050000000000001,0.04157833382487297,0.0006103515625,0.029258739203214645,0.08690313994884491
0.07099999999999995,0.04156216233968735,0.00030517578125,0.028796706348657608,0.08754114806652069
0.07150000000000001,0.04154583439230919,0.00030517578125,0.0282235499471426,0.08790379017591476
0.07199999999999995,0.041529811918735504,0.0,0.027870619669556618,0.08755920082330704
0.07250000000000001,0.041513293981552124,0.00091552734375,0.02785578742623329,0.08666561543941498
0.07299999999999995,0.041497308760881424,0.0006103515625,0.02686195634305477,0.08745605498552322
0.07350000000000001,0.04148108884692192,0.00091552734375,0.026398178189992905,0.0860176682472229
0.07399999999999995,0.04146496206521988,0.0006103515625,0.02635921910405159,0.0879332423210144
0.07450000000000001,0.04144863039255142,0.001220703125,0.02514367364346981,0.08663799613714218
0.07499999999999996,0.0414326936006546,0.001220703125,0.024667814373970032,0.08650801330804825
0.07550000000000001,0.04141616076231003,0.00030517578125,0.025187449529767036,0.08757095038890839
0.07599999999999996,0.041400108486413956,0.0006103515625,0.024370264261960983,0.08697592467069626
0.07650000000000001,0.041383612900972366,0.00091552734375,0.024033188819885254,0.0869351178407669
0.07699999999999996,0.04136738181114197,0.0006103515625,0.02421734295785427,0.08755402266979218
0.07750000000000001,0.04135115444660187,0.00091552734375,0.023404546082019806,0.08732684701681137
0.07799999999999996,0.04133477061986923,0.00030517578125,0.022418368607759476,0.08693010360002518
0.07850000000000001,0.04131865128874779,0.00030517578125,0.022229362279176712,0.08666877448558807
0.07899999999999996,0.04130220040678978,0.00030517578125,0.021968023851513863,0.08699741214513779
0.07950000000000002,0.04128613695502281,0.0006103515625,0.02175799198448658,0.08725091069936752
0.07999999999999996,0.04126976057887077,0.00030517578125,0.021293995901942253,0.0866902694106102
0.08050000000000002,0.041253600269556046,0.0006103515625,0.021067140623927116,0.08721673488616943
0.08099999999999996,0.04123714938759804,0.00152587890625,0.02069399319589138,0.08668126165866852
0.08150000000000002,0.041221052408218384,0.0006103515625,0.019985003396868706,0.08673356473445892
0.08199999999999996,0.04120495915412903,0.0,0.020172782242298126,0.08723495900630951
0.08250000000000002,0.041188862174749374,0.0006103515625,0.01968948170542717,0.08648791909217834
0.08299999999999996,0.041172511875629425,0.00152587890625,0.019199660047888756,0.08696849644184113
0.08350000000000002,0.041156087070703506,0.00030517578125,0.01912127621471882,0.08632759004831314
0.08399999999999996,0.04114001244306564,0.0006103515625,0.018959462642669678,0.08709089457988739
0.08450000000000002,0.04112357646226883,0.00091552734375,0.018620075657963753,0.08734273165464401
0.08499999999999996,0.04110730439424515,0.00030517578125,0.018364327028393745,0.08682587742805481
0.08550000000000002,0.04109129309654236,0.00091552734375,0.017940932884812355,0.0864824578166008
0.08599999999999997,0.041075047105550766,0.0006103515625,0.01751265488564968,0.08652646094560623
0.08650000000000002,0.04105895757675171,0.0,0.01678500510752201,0.08754283934831619
0.08699999999999997,0.04104263335466385,0.001220703125,0.0168417040258646,0.08695843070745468
0.08750000000000002,0.041026681661605835,0.0006103515625,0.01676720194518566,0.08714175969362259
0.08799999999999997,0.04100990295410156,0.0006103515625,0.016423039138317108,0.08616586029529572
0.08850000000000002,0.04099394753575325,0.0,0.015835877507925034,0.08722928166389465
0.08899999999999997,0.040977686643600464,0.0006103515625,0.01588117890059948,0.08644323796033859
0.08950000000000002,0.0409616194665432,0.0006103515625,0.015717782080173492,0.08740243315696716
0.08999999999999997,0.04094504937529564,0.0006103515625,0.015100361779332161,0.08700542896986008
0.09050000000000002,0.040929123759269714,0.00030517578125,0.01446131058037281,0.08713727444410324
0.09099999999999997,0.04091276600956917,0.00030517578125,0.01460476964712143,0.0871473029255867
0.09150000000000003,0.04089665412902832,0.0006103515625,0.014174673706293106,0.08683657646179199
0.09199999999999997,0.04088013246655464,0.00030517578125,0.013856816105544567,0.08675213158130646
0.09250000000000003,0.04086396470665932,0.00030517578125,0.014047791250050068,0.08643932640552521
0.09299999999999997,0.040847718715667725,0.0006103515625,0.0133719053119421,0.08663341403007507
0.09350000000000003,0.040831468999385834,0.0006103515625,0.013117402791976929,0.08665832132101059
0.09399999999999997,0.040815241634845734,0.0006103515625,0.012886456213891506,0.0874209851026535
0.09450000000000003,0.04079897701740265,0.00030517578125,0.012451793998479843,0.08738429099321365
0.09499999999999997,0.04078260809183121,0.0006103515625,0.012704440392553806,0.08648571372032166
0.09550000000000003,0.04076651483774185,0.0,0.012188551016151905,0.08665861934423447
0.09599999999999997,0.0407504178583622,0.0006103515625,0.01203707605600357,0.08639299124479294
0.09650000000000003,0.04073405638337135,0.00030517578125,0.011590513400733471,0.08628445863723755
0.09699999999999998,0.04071788117289543,0.0006103515625,0.011001062579452991,0.08626515418291092
0.09750000000000003,0.040701597929000854,0.00030517578125,0.011205683462321758,0.08662932366132736
0.09799999999999998,0.04068528488278389,0.0006103515625,0.010906925424933434,0.08539077639579773
0.09850000000000003,0.04066918417811394,0.0006103515625,0.010480478405952454,0.08670786023139954
0.09899999999999998,0.04065285250544548,0.00091552734375,0.010058523155748844,0.08720196783542633
0.09950000000000003,0.04063671454787254,0.00030517578125,0.009923068806529045,0.08642403781414032
0.09999999999999998,0.04062023386359215,0.0006103515625,0.009282957762479782,0.08662088215351105
0.10050000000000003,0.04060421139001846,0.0006103515625,0.009541383013129234,0.08656065165996552
0.10099999999999998,0.04058799520134926,0.0006103515625,0.00917271338403225,0.08600760251283646
0.10150000000000003,0.040571440011262894,0.0006103515625,0.008991311304271221,0.0864831879734993
0.10199999999999998,0.04055548459291458,0.00091552734375,0.009011099115014076,0.08686179667711258
0.10250000000000004,0.04053901508450508,0.0006103515625,0.009215354919433594,0.08642680197954178
0.10299999999999998,0.04052277281880379,0.00030517578125,0.008176212199032307,0.08631948381662369
0.10350000000000004,0.040506478399038315,0.0006103515625,0.007884868420660496,0.08638730645179749
0.10399999999999998,0.040490567684173584,0.0006103515625,0.007609239313751459,0.08652544021606445
