Time [s],Lmtc [m],STIM [ ],fGM [N],fGL [N]
0.0,0.043548934161663055,0.00030517578125,0.27628639340400696,0.09703003615140915
0.0004999999999999449,0.043548453599214554,0.00091552734375,0.2768784463405609,0.09556766599416733
0.0010000000000000009,0.043548714369535446,0.0006103515625,0.2765704095363617,0.09661591798067093
0.0014999999999999458,0.04354852810502052,0.00091552734375,0.2770695090293884,0.09646882116794586
0.0020000000000000018,0.043548595160245895,0.00030517578125,0.2764699161052704,0.0964960902929306
0.0024999999999999467,0.04354860633611679,0.0006103515625,0.27682656049728394,0.09656655043363571
0.0030000000000000027,0.0435488186776638,0.0006103515625,0.2769991457462311,0.09688853472471237
0.0034999999999999476,0.043548423796892166,0.00030517578125,0.27639123797416687,0.09551394730806351
0.0040000000000000036,0.0435485914349556,0.00091552734375,0.2773681581020355,0.09666035324335098
0.0044999999999999485,0.04354841634631157,0.00091552734375,0.27677202224731445,0.09610249102115631
0.0050000000000000044,0.04354870691895485,0.0006103515625,0.27737510204315186,0.09705764800310135
0.005499999999999949,0.04354846104979515,-0.00030517578125,0.27684035897254944,0.09609487652778625
0.006000000000000005,0.043548621237277985,0.00091552734375,0.2772570848464966,0.09629184752702713
0.00649999999999995,0.043548621237277985,0.00030517578125,0.2774622142314911,0.09615425020456314
0.007000000000000006,0.04354877024888992,0.00030517578125,0.2775837182998657,0.0965556874871254
0.007499999999999951,0.04354875162243843,0.00030517578125,0.27727410197257996,0.09570956975221634
0.008000000000000007,0.04354868456721306,0.0006103515625,0.2778231203556061,0.09672196954488754
0.008499999999999952,0.043548308312892914,0.0006103515625,0.2776813507080078,0.09561243653297424
0.009000000000000008,0.04354856535792351,0.0,0.27678993344306946,0.09542424231767654
0.009499999999999953,0.043548911809921265,0.0006103515625,0.2773658335208893,0.09623600542545319
0.010000000000000009,0.04354863613843918,0.00091552734375,0.2771240770816803,0.09591298550367355
0.010499999999999954,0.043548423796892166,0.0006103515625,0.2772594094276428,0.09578834474086761
0.01100000000000001,0.043548353016376495,0.00030517578125,0.2763913869857788,0.09523912519216537
0.011499999999999955,0.043547745794057846,0.0006103515625,0.2746335566043854,0.0960245281457901
0.01200000000000001,0.04354621097445488,0.0006103515625,0.271777868270874,0.0954907014966011
0.012499999999999956,0.04354417696595192,0.00030517578125,0.2680630087852478,0.09574293345212936
0.013000000000000012,0.04354029893875122,0.0006103515625,0.26300784945487976,0.09649515897035599
0.013499999999999956,0.043534956872463226,0.001220703125,0.25783517956733704,0.09675583988428116
0.014000000000000012,0.04352816566824913,0.0006103515625,0.25218549370765686,0.09655789285898209
0.014499999999999957,0.043520405888557434,0.0,0.24720020592212677,0.0974142998456955
0.015000000000000013,0.04351169243454933,0.00030517578125,0.24205690622329712,0.09683379530906677
0.015499999999999958,0.04350227117538452,0.0006103515625,0.23661461472511292,0.09666740894317627
0.016000000000000014,0.04349279776215553,0.00030517578125,0.23148909211158752,0.09694278985261917
0.01649999999999996,0.04348289594054222,0.00091552734375,0.22700808942317963,0.09706861525774002
0.017000000000000015,0.04347233474254608,0.00030517578125,0.22253094613552094,0.0967697873711586
0.01749999999999996,0.043461985886096954,0.0006103515625,0.2181754857301712,0.09797999262809753
0.018000000000000016,0.0434514544904232,0.0006103515625,0.21501609683036804,0.09579405933618546
0.01849999999999996,0.04344097524881363,0.00030517578125,0.21182943880558014,0.0975366160273552
0.019000000000000017,0.04343033209443092,0.0,0.2078683227300644,0.0961480364203453
0.019499999999999962,0.043420203030109406,0.00030517578125,0.20560124516487122,0.09695965051651001
0.020000000000000018,0.0434093214571476,0.00030517578125,0.2025241255760193,0.09596942365169525
0.020499999999999963,0.04339899867773056,0.00030517578125,0.1996881365776062,0.09556595236063004
0.02100000000000002,0.04338867589831352,0.00030517578125,0.19694021344184875,0.09503337740898132
0.021499999999999964,0.04337858781218529,0.00030517578125,0.19495812058448792,0.09557808935642242
0.02200000000000002,0.04336800053715706,0.00030517578125,0.19199955463409424,0.09485743939876556
0.022499999999999964,0.04335779324173927,0.0006103515625,0.18988731503486633,0.09472600370645523
0.02300000000000002,0.04334765672683716,0.00030517578125,0.18754048645496368,0.09529135376214981
0.023499999999999965,0.04333752021193504,0.0,0.18542025983333588,0.0933414176106453
0.02400000000000002,0.04332731291651726,0.0006103515625,0.1831149458885193,0.09430518746376038
0.024499999999999966,0.04331723228096962,0.0006103515625,0.1815621554851532,0.09430153667926788
0.025000000000000022,0.043307337909936905,0.001220703125,0.17938703298568726,0.09372931718826294
0.025499999999999967,0.04329681769013405,0.00030517578125,0.17682921886444092,0.09334175288677216
0.026000000000000023,0.04328695684671402,0.0006103515625,0.17475531995296478,0.09356055408716202
0.026499999999999968,0.04327677562832832,0.00030517578125,0.17278923094272614,0.0931270569562912
0.027000000000000024,0.04326685145497322,0.0006103515625,0.1715821623802185,0.09305176138877869
0.02749999999999997,0.043256185948848724,0.0,0.16951967775821686,0.0935303270816803
0.028000000000000025,0.043246299028396606,0.0,0.16776275634765625,0.09331155568361282
0.02849999999999997,0.043236128985881805,0.00030517578125,0.16618531942367554,0.09188046306371689
0.029000000000000026,0.04322614520788193,0.00030517578125,0.16462382674217224,0.0927232876420021
0.02949999999999997,0.043215807527303696,0.00030517578125,0.16282400488853455,0.09240542352199554
0.030000000000000027,0.04320578649640083,0.00091552734375,0.16165170073509216,0.09251241385936737
0.03049999999999997,0.04319574683904648,0.0006103515625,0.15965595841407776,0.0920787900686264
0.031000000000000028,0.04318556189537048,-0.00030517578125,0.15823151171207428,0.09209655225276947
0.03149999999999997,0.043175362050533295,0.0,0.15737353265285492,0.0914737656712532
0.03200000000000003,0.04316540062427521,0.0006103515625,0.15574029088020325,0.09324555844068527
0.03249999999999997,0.043155185878276825,0.0006103515625,0.15426106750965118,0.0923829972743988
0.03300000000000003,0.04314509406685829,0.0006103515625,0.1530209332704544,0.09280308336019516
0.033499999999999974,0.04313506931066513,0.0006103515625,0.1511988490819931,0.09290893375873566
0.03400000000000003,0.043124981224536896,0.00030517578125,0.14963221549987793,0.09309780597686768
0.034499999999999975,0.04311476647853851,0.00030517578125,0.14851804077625275,0.09241772443056107
0.03500000000000003,0.04310508072376251,0.0006103515625,0.14708445966243744,0.09337446838617325
0.035499999999999976,0.04309512674808502,0.0006103515625,0.14544540643692017,0.09357726573944092
0.03600000000000003,0.0430847592651844,0.0006103515625,0.143727645277977,0.09230087697505951
0.03649999999999998,0.04307502135634422,0.00091552734375,0.1423303335905075,0.09313707798719406
0.03700000000000003,0.043064478784799576,0.0006103515625,0.14173686504364014,0.0923493430018425
0.03749999999999998,0.043054621666669846,0.0006103515625,0.13955411314964294,0.09263481944799423
0.038000000000000034,0.043044548481702805,0.00030517578125,0.13903647661209106,0.09236768633127213
0.03849999999999998,0.04303416982293129,0.0006103515625,0.1377071738243103,0.09292451292276382
0.039000000000000035,0.04302394017577171,0.0006103515625,0.13609865307807922,0.09175347536802292
0.03949999999999998,0.04301413893699646,0.00030517578125,0.13454507291316986,0.09193838387727737
0.040000000000000036,0.043004196137189865,0.0006103515625,0.13293692469596863,0.09296321123838425
0.04049999999999998,0.04299399256706238,0.00030517578125,0.13198083639144897,0.09260284155607224
0.041000000000000036,0.04298410564661026,0.0006103515625,0.13046106696128845,0.09173479676246643
0.04149999999999998,0.042973849922418594,0.00030517578125,0.12949055433273315,0.09214583784341812
0.04200000000000004,0.0429636687040329,0.00091552734375,0.12828116118907928,0.09199757874011993
0.04249999999999998,0.042953524738550186,-0.00030517578125,0.12688802182674408,0.09213479608297348
0.04300000000000004,0.0429438091814518,0.001220703125,0.1258642077445984,0.09181810915470123
0.04349999999999998,0.04293350875377655,0.0,0.12426716834306717,0.09181748330593109
0.04400000000000004,0.04292318597435951,0.00152587890625,0.12310842424631119,0.0915854349732399
0.044499999999999984,0.04291340336203575,0.00091552734375,0.12191007286310196,0.09177318960428238
0.04500000000000004,0.04290328174829483,0.00030517578125,0.12077995389699936,0.09159953892230988
0.045499999999999985,0.04289328679442406,0.0,0.11961585283279419,0.0916464775800705
0.04600000000000004,0.04288288578391075,0.00091552734375,0.11840888857841492,0.0911363735795021
0.046499999999999986,0.04287305474281311,0.00091552734375,0.11742467433214188,0.09267016500234604
0.04700000000000004,0.04286280274391174,0.0,0.11610190570354462,0.09212861210107803
0.04749999999999999,0.04285296052694321,0.0006103515625,0.11452934145927429,0.091465063393116
0.04800000000000004,0.042842693626880646,0.00030517578125,0.11352507770061493,0.09102354198694229
0.04849999999999999,0.04283273220062256,0.0006103515625,0.11269943416118622,0.0916319191455841
0.049000000000000044,0.042822279036045074,0.00030517578125,0.11115896701812744,0.09069543331861496
0.04949999999999999,0.042812347412109375,0.0,0.11057596653699875,0.09101758897304535
0.050000000000000044,0.04280214011669159,0.0006103515625,0.1094827800989151,0.0910855084657669
0.05049999999999999,0.042791686952114105,0.00030517578125,0.10850928723812103,0.08972369134426117
0.051000000000000045,0.042781762778759,0.00030517578125,0.10750686377286911,0.09055015444755554
0.05149999999999999,0.042771704494953156,-0.00030517578125,0.10650841146707535,0.09152515977621078
0.052000000000000046,0.042761918157339096,0.0006103515625,0.10557553172111511,0.09044386446475983
0.05249999999999999,0.04275154322385788,0.0006103515625,0.10419154912233353,0.09095404297113419
0.05300000000000005,0.042741596698760986,0.0006103515625,0.10370083898305893,0.09145474433898926
0.05349999999999999,0.042731594294309616,0.00030517578125,0.10271643847227097,0.09173689037561417
0.05400000000000005,0.04272149130702019,0.00030517578125,0.10158514231443405,0.09113948792219162
0.05449999999999999,0.04271126911044121,0.00091552734375,0.1006733700633049,0.09116150438785553
0.05500000000000005,0.04270133748650551,0.0006103515625,0.09998086839914322,0.09110657870769501
0.055499999999999994,0.04269131273031235,0.00030517578125,0.0994064062833786,0.09114328026771545
0.05600000000000005,0.04268107935786247,0.0006103515625,0.09820906072854996,0.09073460102081299
0.056499999999999995,0.042671073228120804,0.00030517578125,0.09775722771883011,0.09084095060825348
0.05700000000000005,0.042660992592573166,0.00030517578125,0.09636788070201874,0.09128906577825546
0.057499999999999996,0.042650945484638214,0.00030517578125,0.09509419649839401,0.09018799662590027
0.05800000000000005,0.04264076054096222,0.00030517578125,0.09480584412813187,0.09144672006368637
0.058499999999999996,0.04263061657547951,0.00091552734375,0.09396946430206299,0.08966665714979172
0.05900000000000005,0.04262077063322067,0.00030517578125,0.09348498284816742,0.09107678383588791
0.0595,0.042610522359609604,0.00030517578125,0.092595674097538,0.09104602783918381
0.06000000000000005,0.04260053113102913,0.0006103515625,0.09196937829256058,0.0911644995212555
0.0605,0.04259015619754791,0.0006103515625,0.090711310505867,0.09054336696863174
0.061000000000000054,0.04258022829890251,0.00030517578125,0.09015796333551407,0.09086918830871582
0.0615,0.04257014021277428,0.0006103515625,0.08934972435235977,0.09030064195394516
0.062000000000000055,0.04256032034754753,-0.00030517578125,0.08871336281299591,0.09060001373291016
0.0625,0.042550116777420044,0.0006103515625,0.08798346668481827,0.09063064306974411
0.06299999999999994,0.042540211230516434,0.00030517578125,0.08761594444513321,0.09023489058017731
0.0635,0.042529936879873276,0.00030517578125,0.08639104664325714,0.08965323865413666
0.06399999999999995,0.04251979663968086,0.0006103515625,0.08593130111694336,0.09054430574178696
0.0645,0.04250960797071457,0.00030517578125,0.08471184968948364,0.09043429791927338
0.06499999999999995,0.04249991104006767,0.00030517578125,0.08420703560113907,0.0900675505399704
0.0655,0.04248975217342377,0.0006103515625,0.08320242911577225,0.09077377617359161
0.06599999999999995,0.042479507625103,0.00030517578125,0.08235867321491241,0.09052760899066925
0.0665,0.042469412088394165,0.0006103515625,0.08193416893482208,0.09036125242710114
0.06699999999999995,0.042459238320589066,0.00030517578125,0.08130364865064621,0.09044387191534042
0.0675,0.0424492172896862,0.0006103515625,0.08098854869604111,0.0899728536605835
0.06799999999999995,0.04243903607130051,0.0,0.07971087843179703,0.08981669694185257
0.0685,0.042429208755493164,0.0006103515625,0.07935109734535217,0.08992809802293777
0.06899999999999995,0.042418837547302246,-0.00030517578125,0.07851087301969528,0.08998014777898788
0.0695,0.04240908473730087,0.0006103515625,0.07784328609704971,0.08947126567363739
0.06999999999999995,0.04239882901310921,0.00091552734375,0.07702919095754623,0.09065013378858566
0.07050000000000001,0.04238850623369217,0.0,0.07595202326774597,0.09005790203809738
0.07099999999999995,0.042378466576337814,0.00030517578125,0.0762152448296547,0.08934910595417023
0.07150000000000001,0.04236842319369316,0.00030517578125,0.07494451850652695,0.08984953165054321
0.07199999999999995,0.0423583947122097,-0.00030517578125,0.07471687346696854,0.08979664742946625
0.07250000000000001,0.042348235845565796,0.0,0.07347825169563293,0.09030867367982864
0.07299999999999995,0.042338233441114426,0.0006103515625,0.07293517142534256,0.08896037936210632
0.07350000000000001,0.04232816770672798,0.00091552734375,0.07271634787321091,0.09063693881034851
0.07399999999999995,0.04231802374124527,0.0006103515625,0.07195951789617538,0.08975628763437271
0.07450000000000001,0.04230796545743942,0.00030517578125,0.07105503976345062,0.08993452042341232
0.07499999999999996,0.04229782521724701,0.00030517578125,0.07041508704423904,0.08986099064350128
0.07550000000000001,0.04228801652789116,0.0006103515625,0.06993705779314041,0.09038472175598145
0.07599999999999996,0.04227767139673233,0.00091552734375,0.06894583255052567,0.09039472788572311
0.07650000000000001,0.04226777330040932,0.00030517578125,0.06938563287258148,0.0903964564204216
0.07699999999999996,0.042257461696863174,0.0006103515625,0.06779716908931732,0.09021561592817307
0.07750000000000001,0.04224751144647598,0.0006103515625,0.06725234538316727,0.08926910907030106
0.07799999999999996,0.042237404733896255,0.0006103515625,0.06657427549362183,0.09056708216667175
0.07850000000000001,0.04222732409834862,0.0006103515625,0.06640592217445374,0.09047476947307587
0.07899999999999996,0.042217180132865906,0.0,0.06606396287679672,0.09003624320030212
0.07950000000000002,0.04220714792609215,0.0006103515625,0.0653342455625534,0.0905575081706047
0.07999999999999996,0.042197149246931076,0.0006103515625,0.06486370414495468,0.08999886363744736
0.08050000000000002,0.04218698665499687,0.0006103515625,0.06421785801649094,0.09034360945224762
0.08099999999999996,0.04217683523893356,0.00030517578125,0.06348522752523422,0.08986174315214157
0.08150000000000002,0.042166780680418015,-0.00030517578125,0.06315567344427109,0.0907757580280304
0.08199999999999996,0.04215666279196739,0.0,0.06235070899128914,0.09010553359985352
0.08250000000000002,0.04214650020003319,0.00030517578125,0.061690520495176315,0.0899645984172821
0.08299999999999996,0.0421365462243557,0.0006103515625,0.06104808300733566,0.08988325297832489
0.08350000000000002,0.042126480489969254,0.0006103515625,0.06093112751841545,0.0894995853304863
0.08399999999999996,0.04211636632680893,0.0006103515625,0.06007770448923111,0.08936372399330139
0.08450000000000002,0.04210613667964935,0.0,0.05941201373934746,0.08909627795219421
0.08499999999999996,0.042096156626939774,0.0,0.05934230983257294,0.08951312303543091
0.08550000000000002,0.04208601266145706,0.00030517578125,0.058568600565195084,0.088497094810009
0.08599999999999997,0.04207581654191017,0.0,0.05793639272451401,0.08948877453804016
0.08650000000000002,0.0420658253133297,0.0006103515625,0.057607099413871765,0.08964304625988007
0.08699999999999997,0.04205584153532982,0.0006103515625,0.05710434168577194,0.08956842124462128
0.08750000000000002,0.042045533657073975,0.00091552734375,0.056487977504730225,0.08902984857559204
0.08799999999999997,0.04203559458255768,0.00030517578125,0.055851198732852936,0.0890698954463005
0.08850000000000002,0.04202531278133392,0.0006103515625,0.055754490196704865,0.08806227147579193
0.08899999999999997,0.04201536253094673,0.00030517578125,0.0549633763730526,0.08902279287576675
0.08950000000000002,0.042004767805337906,0.0006103515625,0.05427643656730652,0.08825410157442093
0.08999999999999997,0.04199494794011116,0.00030517578125,0.05421064421534538,0.08904282748699188
0.09050000000000002,0.041984934359788895,0.0006103515625,0.05333613231778145,0.08888427168130875
0.09099999999999997,0.04197494685649872,0.0006103515625,0.05309973284602165,0.08891607075929642
0.09150000000000003,0.041964899748563766,0.00030517578125,0.05236944183707237,0.08871863037347794
0.09199999999999997,0.041954729706048965,0.0006103515625,0.05220532789826393,0.08917631208896637
0.09250000000000003,0.04194459319114685,0.0,0.05189325287938118,0.08846042305231094
0.09299999999999997,0.041934337466955185,0.0,0.051851339638233185,0.08912938088178635
0.09350000000000003,0.041924506425857544,0.0,0.05096828565001488,0.08892976492643356
0.09399999999999997,0.04191455617547035,0.0006103515625,0.05015963315963745,0.089340440928936
0.09450000000000003,0.04190421476960182,0.0006103515625,0.049628645181655884,0.0890849158167839
0.09499999999999997,0.04189428314566612,0.00030517578125,0.04933548346161842,0.08891455829143524
0.09550000000000003,0.04188428819179535,0.00030517578125,0.0489736869931221,0.0887303575873375
0.09599999999999997,0.041874129325151443,0.00030517578125,0.04864656925201416,0.08874459564685822
0.09650000000000003,0.04186435043811798,0.0,0.04819038137793541,0.08856349438428879
0.09699999999999998,0.04185427725315094,0.0006103515625,0.04764274135231972,0.0887264683842659
0.09750000000000003,0.0418442077934742,0.0,0.04686300829052925,0.08880119770765305
0.09799999999999998,0.04183391481637955,0.0,0.04676731303334236,0.08870866149663925
0.09850000000000003,0.04182395339012146,0.00030517578125,0.04649081081151962,0.0895850658416748
0.09899999999999998,0.04181386157870293,0.00030517578125,0.046378590166568756,0.08836223930120468
0.09950000000000003,0.041803546249866486,0.00030517578125,0.04541732370853424,0.08916296064853668
0.09999999999999998,0.041793592274188995,0.0006103515625,0.0449436791241169,0.08859705924987793
0.10050000000000003,0.041783858090639114,0.0006103515625,0.04424731805920601,0.09001172333955765
0.10099999999999998,0.04177343100309372,0.0,0.04397407919168472,0.0886162519454956
0.10150000000000003,0.04176364466547966,0.00030517578125,0.04375683516263962,0.08893688023090363
0.10199999999999998,0.04175371676683426,0.0,0.04338226839900017,0.08908640593290329
0.10250000000000004,0.04174327850341797,0.0,0.04281153529882431,0.08883107453584671
0.10299999999999998,0.041733238846063614,0.0006103515625,0.04268541559576988,0.08852984011173248
0.10350000000000004,0.041723206639289856,0.0,0.042610570788383484,0.08862276375293732
0.10399999999999998,0.041713133454322815,0.0006103515625,0.04173187538981438,0.08832697570323944
0.10450000000000004,0.041702765971422195,0.00030517578125,0.04138214886188507,0.08804317563772202
0.10499999999999998,0.04169287532567978,0.0,0.04127343371510506,0.08834778517484665
