Time [s],Lmtc [m],STIM [ ],fGM [N],fGL [N]
0.0,0.04354868456721306,0.00091552734375,0.2632881999015808,0.09428320080041885
0.0004999999999999449,0.043548885732889175,0.00030517578125,0.2636614143848419,0.09475985914468765
0.0010000000000000009,0.04354843497276306,0.0,0.26335906982421875,0.09467922151088715
0.0014999999999999458,0.043548695743083954,0.0006103515625,0.2629580497741699,0.09466829150915146
0.0020000000000000018,0.043548498302698135,0.0,0.2628631293773651,0.09402425587177277
0.0024999999999999467,0.043548889458179474,0.00030517578125,0.2635016441345215,0.09469002485275269
0.0030000000000000027,0.0435483492910862,0.00030517578125,0.2628011405467987,0.09443293511867523
0.0034999999999999476,0.04354868829250336,0.0006103515625,0.26334068179130554,0.09445106983184814
0.0040000000000000036,0.04354848340153694,0.00030517578125,0.2632397711277008,0.09396883845329285
0.0044999999999999485,0.04354868829250336,0.0006103515625,0.2628841996192932,0.09459784626960754
0.0050000000000000044,0.04354865849018097,0.00030517578125,0.26305660605430603,0.09317510575056076
0.005499999999999949,0.04354877024888992,0.00030517578125,0.26294565200805664,0.09423884749412537
0.006000000000000005,0.0435485877096653,0.0006103515625,0.26238375902175903,0.09385346621274948
0.00649999999999995,0.04354843497276306,0.0006103515625,0.2622344195842743,0.094765804708004
0.007000000000000006,0.04354815185070038,0.0006103515625,0.26123499870300293,0.09386732429265976
0.007499999999999951,0.043547216802835464,0.00091552734375,0.2586900591850281,0.09489857405424118
0.008000000000000007,0.04354526847600937,0.00030517578125,0.25552794337272644,0.09414080530405045
0.008499999999999952,0.04354212060570717,0.0,0.2518481910228729,0.09414888918399811
0.009000000000000008,0.04353807121515274,0.00030517578125,0.24740886688232422,0.09438669681549072
0.009499999999999953,0.04353276267647743,0.00030517578125,0.2434912770986557,0.0950203537940979
0.010000000000000009,0.043526675552129745,0.00030517578125,0.23919323086738586,0.09476922452449799
0.010499999999999954,0.04351970553398132,0.0,0.23462137579917908,0.09406454116106033
0.01100000000000001,0.043512217700481415,0.0006103515625,0.23022687435150146,0.0946936309337616
0.011499999999999955,0.04350452870130539,0.0006103515625,0.22572745382785797,0.09475988894701004
0.01200000000000001,0.043496597558259964,0.0,0.22206583619117737,0.09453817456960678
0.012499999999999956,0.043488096445798874,0.0,0.21888017654418945,0.09447789192199707
0.013000000000000012,0.043479979038238525,0.00030517578125,0.2151196151971817,0.09426216036081314
0.013499999999999956,0.043471578508615494,0.00091552734375,0.21180516481399536,0.09475704282522202
0.014000000000000012,0.04346325993537903,0.0006103515625,0.20907308161258698,0.09497153759002686
0.014499999999999957,0.043454740196466446,0.00030517578125,0.20617163181304932,0.09453825652599335
0.015000000000000013,0.0434463769197464,-0.00030517578125,0.20330187678337097,0.09517393261194229
0.015499999999999958,0.0434383861720562,0.00030517578125,0.20083849132061005,0.09432227909564972
0.016000000000000014,0.043429795652627945,0.00030517578125,0.19887980818748474,0.09406332671642303
0.01649999999999996,0.043421123176813126,0.0,0.19696849584579468,0.09306047111749649
0.017000000000000015,0.04341331496834755,0.0006103515625,0.19501735270023346,0.09393183141946793
0.01749999999999996,0.04340480640530586,0.0006103515625,0.19282977283000946,0.09310010075569153
0.018000000000000016,0.043396707624197006,0.00030517578125,0.19100159406661987,0.0941397175192833
0.01849999999999996,0.043388448655605316,0.00030517578125,0.18905217945575714,0.09269696474075317
0.019000000000000017,0.043380606919527054,0.0,0.18761467933654785,0.09314772486686707
0.019499999999999962,0.04337210953235626,0.00030517578125,0.18497176468372345,0.0931754931807518
0.020000000000000018,0.0433642715215683,0.0006103515625,0.18382418155670166,0.09300091117620468
0.020499999999999963,0.04335648566484451,0.0006103515625,0.18190385401248932,0.09311209619045258
0.02100000000000002,0.04334811121225357,-0.00030517578125,0.18083684146404266,0.09278476983308792
0.021499999999999964,0.04333997145295143,0.0006103515625,0.1787842959165573,0.09282787144184113
0.02200000000000002,0.0433318093419075,0.0006103515625,0.1773367077112198,0.09229721873998642
0.022499999999999964,0.043323807418346405,0.0006103515625,0.1766625940799713,0.09214780479669571
0.02300000000000002,0.04331562668085098,0.0006103515625,0.1743527203798294,0.09200555831193924
0.023499999999999965,0.04330775886774063,0.00030517578125,0.17314036190509796,0.09247958660125732
0.02400000000000002,0.043299783021211624,0.0006103515625,0.1715635061264038,0.09192080795764923
0.024499999999999966,0.04329155758023262,0.0006103515625,0.17013417184352875,0.09143511205911636
0.025000000000000022,0.04328351095318794,0.00030517578125,0.16874104738235474,0.09050552546977997
0.025499999999999967,0.04327560216188431,-0.00030517578125,0.1675136685371399,0.09185752272605896
0.026000000000000023,0.04326716065406799,0.0006103515625,0.1669100970029831,0.0908665880560875
0.026499999999999968,0.04325909912586212,0.00030517578125,0.16509661078453064,0.09142395853996277
0.027000000000000024,0.04325128719210625,0.0006103515625,0.16390496492385864,0.09084633737802505
0.02749999999999997,0.04324314743280411,0.0006103515625,0.16281746327877045,0.09089009463787079
0.028000000000000025,0.043234933167696,0.00091552734375,0.1614915281534195,0.08960378915071487
0.02849999999999997,0.043227002024650574,0.00030517578125,0.15987864136695862,0.09100653231143951
0.029000000000000026,0.04321891814470291,0.0006103515625,0.15891282260417938,0.09061146527528763
0.02949999999999997,0.04321085289120674,0.0006103515625,0.15829575061798096,0.09104326367378235
0.030000000000000027,0.043202511966228485,0.0006103515625,0.15629316866397858,0.09038256853818893
0.03049999999999997,0.04319487884640694,0.001220703125,0.15539118647575378,0.09075047075748444
0.031000000000000028,0.04318651556968689,0.00091552734375,0.15409918129444122,0.09056831151247025
0.03149999999999997,0.04317862167954445,0.0006103515625,0.15326707065105438,0.0908399447798729
0.03200000000000003,0.04317076504230499,0.00030517578125,0.15198451280593872,0.0909620076417923
0.03249999999999997,0.04316236823797226,0.00030517578125,0.15084810554981232,0.09084147959947586
0.03300000000000003,0.043154679238796234,0.0,0.1494188904762268,0.09146783500909805
0.033499999999999974,0.04314614459872246,0.00091552734375,0.14849114418029785,0.09138482809066772
0.03400000000000003,0.04313839226961136,0.0006103515625,0.1476251631975174,0.0910741463303566
0.034499999999999975,0.04313027113676071,0.0,0.14647060632705688,0.0914628729224205
0.03500000000000003,0.043122246861457825,0.0006103515625,0.1458572894334793,0.09153668582439423
0.035499999999999976,0.043114084750413895,0.0006103515625,0.14437083899974823,0.09180270880460739
0.03600000000000003,0.04310614615678787,0.0006103515625,0.14334934949874878,0.09163960814476013
0.03649999999999998,0.04309777542948723,0.00030517578125,0.14199991524219513,0.09046582877635956
0.03700000000000003,0.043090008199214935,0.00091552734375,0.14098705351352692,0.0914858803153038
0.03749999999999998,0.04308195784687996,0.00030517578125,0.13988333940505981,0.09138062596321106
0.038000000000000034,0.04307379573583603,0.0006103515625,0.1385442465543747,0.09142271429300308
0.03849999999999998,0.04306590184569359,0.0,0.13757392764091492,0.09046730399131775
0.039000000000000035,0.0430578738451004,0.001220703125,0.13695237040519714,0.09077300131320953
0.03949999999999998,0.04304950311779976,0.0006103515625,0.13585220277309418,0.08960559219121933
0.040000000000000036,0.043041836470365524,0.0006103515625,0.13457147777080536,0.0907638743519783
0.04049999999999998,0.04303364083170891,0.0006103515625,0.13384898006916046,0.09033811092376709
0.041000000000000036,0.043025605380535126,0.00030517578125,0.132267564535141,0.09052857011556625
0.04149999999999998,0.04301757365465164,0.0,0.13107186555862427,0.0904037356376648
0.04200000000000004,0.04300973191857338,0.00030517578125,0.13033980131149292,0.09042400121688843
0.04249999999999998,0.043001770973205566,0.00030517578125,0.12924492359161377,0.08992476761341095
0.04300000000000004,0.04299367591738701,0.00030517578125,0.12826509773731232,0.09100064635276794
0.04349999999999998,0.04298533499240875,0.0006103515625,0.12722280621528625,0.09011445194482803
0.04400000000000004,0.0429772287607193,0.00030517578125,0.12688657641410828,0.08943268656730652
0.044499999999999984,0.042969267815351486,0.0,0.12498132139444351,0.08989609032869339
0.04500000000000004,0.042961154133081436,0.0006103515625,0.12423265725374222,0.08998066931962967
0.045499999999999985,0.042953215539455414,0.00030517578125,0.12318947911262512,0.08989529311656952
0.04600000000000004,0.042945101857185364,0.0,0.12219861149787903,0.08950815349817276
0.046499999999999986,0.042937006801366806,0.0,0.12114724516868591,0.08954346179962158
0.04700000000000004,0.04292890429496765,-0.00030517578125,0.12056732177734375,0.08869782835245132
0.04749999999999999,0.04292093962430954,0.0,0.11954294890165329,0.08894376456737518
0.04800000000000004,0.04291278123855591,0.00030517578125,0.11869761347770691,0.08943255990743637
0.04849999999999999,0.042904675006866455,0.00030517578125,0.11745227873325348,0.08968383818864822
0.049000000000000044,0.04289665073156357,0.0006103515625,0.11661496758460999,0.08920300751924515
0.04949999999999999,0.04288865253329277,0.00030517578125,0.11604275554418564,0.08949793875217438
0.050000000000000044,0.042880598455667496,0.0006103515625,0.11484503746032715,0.0893574059009552
0.05049999999999999,0.04287264868617058,0.00030517578125,0.11392822116613388,0.08964793384075165
0.051000000000000045,0.04286445304751396,0.0006103515625,0.11304908990859985,0.08933088928461075
0.05149999999999999,0.0428566075861454,0.0,0.11223725974559784,0.08931643515825272
0.052000000000000046,0.0428481251001358,0.00030517578125,0.11136147379875183,0.08917288482189178
0.05249999999999999,0.042840197682380676,0.00030517578125,0.11040942370891571,0.08971627801656723
0.05300000000000005,0.0428318977355957,0.00091552734375,0.11012274771928787,0.0891585499048233
0.05349999999999999,0.04282398521900177,0.00091552734375,0.1092904657125473,0.0900983139872551
0.05400000000000005,0.04281578212976456,0.0,0.10875821858644485,0.08887763321399689
0.05449999999999999,0.042807795107364655,0.00030517578125,0.10738478600978851,0.0897536650300026
0.05500000000000005,0.042799726128578186,0.0006103515625,0.1068916767835617,0.08967440575361252
0.055499999999999994,0.04279158636927605,0.0006103515625,0.10592344403266907,0.0893813967704773
0.05600000000000005,0.0427837036550045,0.00030517578125,0.1050565168261528,0.08967065066099167
0.056499999999999995,0.04277537763118744,0.0,0.10477294027805328,0.08909773826599121
0.05700000000000005,0.04276741296052933,0.0006103515625,0.10379175841808319,0.08881834894418716
0.057499999999999996,0.042759571224451065,0.0006103515625,0.1037479117512703,0.08920309692621231
0.05800000000000005,0.04275121912360191,0.00030517578125,0.10273914039134979,0.08971595764160156
0.058499999999999996,0.04274328798055649,0.0,0.10223330557346344,0.08890261501073837
0.05900000000000005,0.04273528605699539,0.0006103515625,0.10126654803752899,0.08899843692779541
0.0595,0.04272717610001564,0.0006103515625,0.10084737092256546,0.08955486118793488
0.06000000000000005,0.04271902143955231,0.0006103515625,0.09961547702550888,0.08908434212207794
0.0605,0.04271119460463524,0.0006103515625,0.09934733808040619,0.08911024034023285
0.061000000000000054,0.042703162878751755,0.00030517578125,0.09844433516263962,0.08900722116231918
0.0615,0.04269484430551529,0.00030517578125,0.09807044267654419,0.08951236307621002
0.062000000000000055,0.042686983942985535,0.0,0.09747575968503952,0.08836320042610168
0.0625,0.042678963392972946,0.00030517578125,0.0966603234410286,0.09011073410511017
0.06299999999999994,0.04267091304063797,0.00030517578125,0.09588634222745895,0.08980339020490646
0.0635,0.04266288876533508,0.0006103515625,0.09560640901327133,0.08944381773471832
0.06399999999999995,0.04265503212809563,0.0006103515625,0.09471707791090012,0.08924976736307144
0.0645,0.04264703392982483,0.0006103515625,0.09423238039016724,0.08881425112485886
0.06499999999999995,0.042638685554265976,0.0,0.09319962561130524,0.08875405043363571
0.0655,0.04263066127896309,0.00030517578125,0.0926012322306633,0.08916784077882767
0.06599999999999995,0.04262269660830498,0.00091552734375,0.09271102398633957,0.08908756077289581
0.0665,0.04261443763971329,0.00091552734375,0.09170501679182053,0.08779177814722061
0.06699999999999995,0.04260668158531189,0.00030517578125,0.0909033715724945,0.0893295630812645
0.0675,0.04259873926639557,0.0006103515625,0.09076528996229172,0.08856109529733658
0.06799999999999995,0.04259052500128746,0.0006103515625,0.0896993950009346,0.08874834328889847
0.0685,0.042582351714372635,0.00030517578125,0.08906229585409164,0.08914104104042053
0.06899999999999995,0.04257434234023094,0.00030517578125,0.08848543465137482,0.08902960270643234
0.0695,0.04256630316376686,0.00030517578125,0.08797352015972137,0.08819610625505447
0.06999999999999995,0.04255839064717293,0.0006103515625,0.0875309631228447,0.08820840716362
0.07050000000000001,0.04255017638206482,0.00030517578125,0.08693881332874298,0.08881985396146774
0.07099999999999995,0.04254213720560074,0.00091552734375,0.0870603621006012,0.08901862800121307
0.07150000000000001,0.04253396764397621,0.0006103515625,0.08565130829811096,0.08802235871553421
0.07199999999999995,0.04252614080905914,0.0006103515625,0.08508183807134628,0.08842212706804276
0.07250000000000001,0.04251793026924133,0.0006103515625,0.08462421596050262,0.08862203359603882
0.07299999999999995,0.04250992834568024,0.0,0.08384527266025543,0.08842835575342178
0.07350000000000001,0.04250193014740944,0.00030517578125,0.0829634815454483,0.08785469084978104
0.07399999999999995,0.04249386116862297,0.0006103515625,0.08294308185577393,0.08816032856702805
0.07450000000000001,0.042485736310482025,0.00030517578125,0.08221310377120972,0.08852548897266388
0.07499999999999996,0.04247771576046944,0.00030517578125,0.08161821216344833,0.089027538895607
0.07550000000000001,0.04246964305639267,0.0,0.08139251172542572,0.08903923630714417
0.07599999999999996,0.04246155917644501,0.0006103515625,0.0809285044670105,0.08918073028326035
0.07650000000000001,0.04245360940694809,0.00091552734375,0.07993393391370773,0.08933373540639877
0.07699999999999996,0.042445261031389236,-0.00030517578125,0.07906784862279892,0.08878397196531296
0.07750000000000001,0.042437389492988586,0.00030517578125,0.0790572315454483,0.08849890530109406
0.07799999999999996,0.04242927208542824,0.00091552734375,0.07857626676559448,0.08915789425373077
0.07850000000000001,0.04242150858044624,0.0006103515625,0.0777955874800682,0.0890418216586113
0.07899999999999996,0.042413219809532166,0.00030517578125,0.07749956846237183,0.08877143263816833
0.07950000000000002,0.04240518435835838,-0.0006103515625,0.07676956057548523,0.08918530493974686
0.07999999999999996,0.04239689186215401,0.0,0.07603277266025543,0.08823353797197342
0.08050000000000002,0.04238889738917351,0.00030517578125,0.07566198706626892,0.08912637829780579
0.08099999999999996,0.04238094761967659,0.00030517578125,0.07529647648334503,0.08867024630308151
0.08150000000000002,0.042373113334178925,0.00030517578125,0.07461904734373093,0.08987227827310562
0.08199999999999996,0.042364634573459625,0.0006103515625,0.07347610592842102,0.08929798007011414
0.08250000000000002,0.042356714606285095,0.0,0.07359953224658966,0.08854527026414871
0.08299999999999996,0.042348798364400864,0.00030517578125,0.07296532392501831,0.08827681094408035
0.08350000000000002,0.042340658605098724,0.0006103515625,0.0725066140294075,0.08839287608861923
0.08399999999999996,0.042332570999860764,0.0006103515625,0.07244528830051422,0.0880715474486351
0.08450000000000002,0.04232458025217056,0.00030517578125,0.072109654545784,0.08901701122522354
0.08499999999999996,0.04231635481119156,0.0006103515625,0.07132027298212051,0.08798975497484207
0.08550000000000002,0.042308367788791656,0.0,0.07080047577619553,0.08814876526594162
0.08599999999999997,0.042300447821617126,0.0006103515625,0.0697908103466034,0.08754759281873703
0.08650000000000002,0.04229240491986275,0.00030517578125,0.06966757774353027,0.08826497942209244
0.08699999999999997,0.04228435456752777,0.00091552734375,0.06899061799049377,0.08761937916278839
0.08750000000000002,0.04227618873119354,0.0006103515625,0.06904008984565735,0.0876256600022316
0.08799999999999997,0.04226842522621155,0.0,0.06805375218391418,0.08733943849802017
0.08850000000000002,0.04225996881723404,0.00030517578125,0.06780124455690384,0.08839431405067444
0.08899999999999997,0.04225190356373787,-0.00030517578125,0.06738142669200897,0.08806964755058289
0.08950000000000002,0.042244162410497665,0.00091552734375,0.06681208312511444,0.08851747214794159
0.08999999999999997,0.04223601147532463,0.00030517578125,0.06629297137260437,0.08804100006818771
0.09050000000000002,0.042227853089571,0.0006103515625,0.06566663831472397,0.08755796402692795
0.09099999999999997,0.0422198548913002,0.0006103515625,0.06568444520235062,0.08793949335813522
0.09150000000000003,0.04221174120903015,0.0,0.06494604051113129,0.08722010999917984
0.09199999999999997,0.04220394045114517,0.0006103515625,0.06435603648424149,0.08760814368724823
0.09250000000000003,0.04219565913081169,0.0006103515625,0.0642358809709549,0.08735896646976471
0.09299999999999997,0.042187683284282684,0.00030517578125,0.06376621872186661,0.08824106305837631
0.09350000000000003,0.042179275304079056,0.0006103515625,0.06321001797914505,0.0883447602391243
0.09399999999999997,0.04217151179909706,0.00030517578125,0.06262063980102539,0.08809801191091537
0.09450000000000003,0.04216352105140686,0.00091552734375,0.062160834670066833,0.08840422332286835
0.09499999999999997,0.0421554259955883,0.0,0.061827704310417175,0.087983638048172
0.09550000000000003,0.042147196829319,0.0,0.06173180416226387,0.08824125677347183
0.09599999999999997,0.04213939234614372,0.00030517578125,0.061215970665216446,0.08857881277799606
0.09650000000000003,0.04213104769587517,0.0006103515625,0.06079520657658577,0.08740558475255966
0.09699999999999998,0.04212324321269989,0.00091552734375,0.0601317398250103,0.08791401237249374
0.09750000000000003,0.042114973068237305,0.00030517578125,0.05923532694578171,0.0883314236998558
0.09799999999999998,0.042107000946998596,0.00091552734375,0.05951141566038132,0.08880037069320679
0.09850000000000003,0.042098723351955414,0.00030517578125,0.05901699885725975,0.08764228224754333
0.09899999999999998,0.042090658098459244,0.00030517578125,0.05846422165632248,0.0876021757721901
0.09950000000000003,0.042082782834768295,0.00030517578125,0.05799572914838791,0.08792786300182343
0.09999999999999998,0.042074840515851974,0.00091552734375,0.05778305232524872,0.08874963223934174
0.10050000000000003,0.042066533118486404,0.00030517578125,0.05675465613603592,0.0880022794008255
0.10099999999999998,0.04205859452486038,0.0006103515625,0.05698329582810402,0.08869870007038116
0.10150000000000003,0.042050547897815704,0.00091552734375,0.05620696023106575,0.0881330817937851
0.10199999999999998,0.0420423187315464,0.0,0.0560133196413517,0.08822154998779297
0.10250000000000004,0.04203420504927635,0.00030517578125,0.05598397180438042,0.0874280035495758
0.10299999999999998,0.04202624782919884,0.00030517578125,0.05536958575248718,0.0879206731915474
0.10350000000000004,0.042018190026283264,0.00091552734375,0.054668162018060684,0.08762548118829727
0.10399999999999998,0.04200997203588486,0.001220703125,0.05423963442444801,0.08797226846218109
0.10450000000000004,0.042002011090517044,0.0006103515625,0.05440731719136238,0.08670736849308014
0.10499999999999998,0.04199378192424774,0.0006103515625,0.05380440503358841,0.08732490241527557
