time [s],Lmtc [m],STIM [ ],Fsee [N]
0.0,0.0475022532045841,0.00091552734375,0.30323680239806533
0.0004999999999999,0.0475024469196796,0.001220703125,0.3034419986471075
0.001,0.0475023947656154,0.0006103515625,0.30338049690736096
0.0014999999999999,0.0475027933716774,0.00030517578125,0.30379877578315645
0.002,0.0475021265447139,0.00030517578125,0.3030770968081554
0.0024999999999999,0.0475025102496147,0.00030517578125,0.3034891593801137
0.003,0.0475024841725826,0.0006103515625,0.3034538368854549
0.0034999999999999,0.0475021861493587,0.0,0.3031316522128821
0.004,0.0475024841725826,0.0006103515625,0.3034508525206409
0.0044999999999999,0.0475024208426475,0.0006103515625,0.30337727111229024
0.005,0.0475025698542594,0.00091552734375,0.30353091928716874
0.0054999999999999,0.0475023835897445,0.00030517578125,0.3033247158020145
0.006,0.0475025586783885,0.00091552734375,0.30350765954073855
0.0064999999999999,0.0475020930171012,0.0,0.3030082487602167
0.007,0.047502115368843,0.00030517578125,0.30304590323376085
0.0074999999999999,0.0475026369094848,0.0006103515625,0.30360492049731386
0.008,0.0475022085011005,0.0006103515625,0.30314114996582386
0.0084999999999999,0.0475024990737438,0.00091552734375,0.30345224583982916
0.009,0.0475022904574871,0.0006103515625,0.303225173714846
0.0094999999999999,0.0475024208426475,0.00030517578125,0.30336385153908363
0.01,0.0475023947656154,0.00091552734375,0.303332586368963
0.0104999999999999,0.0475022420287132,0.00091552734375,0.3031699254664941
0.011,0.0475016050040721,0.00091552734375,0.30251083263875583
0.0114999999999999,0.0475002564489841,0.0,0.30115559427059957
0.012,0.0474980175495147,0.0006103515625,0.29896559572218473
0.0124999999999999,0.0474942103028297,0.0006103515625,0.2953243554769538
0.013,0.0474886037409305,0.00030517578125,0.29014330729023485
0.0134999999999999,0.0474815964698791,0.00030517578125,0.28405256156325787
0.014,0.0474727377295494,0.00030517578125,0.2768304603330972
0.0144999999999999,0.0474632456898689,0.00030517578125,0.27001267102202114
0.015,0.0474520176649093,0.0006103515625,0.26278225594390553
0.0154999999999999,0.0474405251443386,0.00030517578125,0.25691043499234906
0.016,0.047428373247385,0.00091552734375,0.25202003597911415
0.0164999999999999,0.0474156662821769,0.0,0.24805428125201517
0.017,0.0474033169448375,0.0006103515625,0.24541862946039136
0.0174999999999999,0.0473901592195034,0.00091552734375,0.24264872704584822
0.018,0.0473772399127483,0.001220703125,0.24053415805449946
0.0184999999999999,0.0473643578588962,0.00030517578125,0.23859131995003213
0.019,0.047351598739624,0.00091552734375,0.2367866561972544
0.0194999999999999,0.0473387464880943,0.0,0.2349155363639074
0.02,0.0473256558179855,0.00030517578125,0.23288693552938627
0.0204999999999999,0.047313392162323,0.0006103515625,0.23154165927702558
0.021,0.0473001860082149,0.0006103515625,0.22932677508513705
0.0214999999999999,0.04728789255023,0.00030517578125,0.22793326957029825
0.022,0.0472754910588264,0.0006103515625,0.22628445637208439
0.0224999999999999,0.0472630970180034,0.0006103515625,0.2245958169739409
0.023,0.0472507067024707,0.00030517578125,0.22289123702796473
0.0234999999999999,0.0472379252314567,0.00091552734375,0.22090706774339622
0.024,0.0472262017428875,0.00091552734375,0.21977135118106766
0.0244999999999999,0.0472134351730346,0.0006103515625,0.21767288766325432
0.025,0.0472010001540184,0.00091552734375,0.21597778292975206
0.0254999999999999,0.0471884794533252,0.0006103515625,0.21422691905217947
0.026,0.0471760407090187,0.001220703125,0.2125556496109597
0.0264999999999999,0.047163899987936,0.00030517578125,0.21109074001114134
0.027,0.0471512824296951,0.00091552734375,0.2092006524433835
0.0274999999999999,0.0471390448510646,0.00091552734375,0.20768286151968104
0.028,0.0471262298524379,0.0006103515625,0.20569793693594013
0.0284999999999999,0.0471140816807746,0.00091552734375,0.20431519965968095
0.029,0.0471015274524688,0.00091552734375,0.20253690543595762
0.0294999999999999,0.0470887422561645,0.00030517578125,0.20065296110285633
0.03,0.0470766387879848,0.0006103515625,0.199341694133917
0.0304999999999999,0.0470640771090984,0.00030517578125,0.19757933232825722
0.031,0.0470516756176948,0.0006103515625,0.19598669992224763
0.0314999999999999,0.0470393039286136,0.0006103515625,0.19440085502670373
0.032,0.0470270700752735,0.0,0.19290055565100658
0.0324999999999999,0.0470147989690303,0.00030517578125,0.19135130170979225
0.033,0.0470016524195671,0.0,0.1891912447768652
0.0334999999999999,0.0469893887639045,0.00091552734375,0.18784598877309505
0.034,0.0469773337244987,0.001220703125,0.18653821351219013
0.0344999999999999,0.0469647794961929,0.00030517578125,0.18479083194953802
0.035,0.0469524785876274,0.0,0.18329156518383813
0.0354999999999999,0.0469398945569992,0.0006103515625,0.1815701025152339
0.036,0.0469280928373336,0.0006103515625,0.18044506594761797
0.0364999999999999,0.0469151325523853,0.00030517578125,0.1783832631181199
0.037,0.0469032451510429,0.0006103515625,0.1772477311566425
0.0374999999999999,0.0468904748558998,0.00030517578125,0.17538275159750144
0.038,0.0468776486814022,0.0006103515625,0.17361060265501452
0.0384999999999999,0.0468658506870269,0.001220703125,0.1726030595949259
0.039,0.0468531548976898,0.0006103515625,0.17080679385768582
0.0394999999999999,0.0468409210443496,0.0,0.16942870904517532
0.04,0.0468283481895923,0.0006103515625,0.16778101335346415
0.0404999999999999,0.0468162186443805,0.00030517578125,0.1664837160079071
0.041,0.0468034856021404,0.00030517578125,0.16472361178345618
0.0414999999999999,0.0467911437153816,0.00030517578125,0.16331587127744135
0.042,0.0467789992690086,0.0006103515625,0.16201013896720262
0.0424999999999999,0.0467663593590259,0.00030517578125,0.16033217725815738
0.043,0.046753853559494,0.0006103515625,0.15882213632645212
0.0434999999999999,0.0467413663864135,0.0006103515625,0.15734390617007046
0.044,0.0467287190258502,0.0006103515625,0.15577004041488107
0.0444999999999999,0.0467165634036064,0.00030517578125,0.15454850094531164
0.045,0.0467041283845901,0.00091552734375,0.15307089033103058
0.0454999999999999,0.0466916672885417,0.00091552734375,0.15159804961114703
0.046,0.0466791279613971,0.00030517578125,0.15009283748894955
0.0464999999999999,0.0466669648885726,0.0006103515625,0.1488530092183392
0.047,0.0466544143855571,0.00030517578125,0.14731230047791838
0.0474999999999999,0.0466419495642185,0.0006103515625,0.14586869943582234
0.048,0.0466299951076507,0.00091552734375,0.14475948656533152
0.0484999999999999,0.0466171912848949,0.0006103515625,0.143028983331068
0.049,0.0466053709387779,0.00030517578125,0.14202839938687595
0.0494999999999999,0.0465925261378288,0.0006103515625,0.1402735015201057
0.05,0.0465805567800998,0.00030517578125,0.13918876042866826
0.0504999999999999,0.0465679615736007,0.0006103515625,0.13763688967678508
0.051,0.0465552546083927,0.00091552734375,0.13608521530072296
0.0514999999999999,0.0465431399643421,0.00030517578125,0.13495210063626703
0.052,0.046530894935131,0.00091552734375,0.1336667751058319
0.0524999999999999,0.0465190559625625,0.00030517578125,0.1326208845871392
0.053,0.046505756676197,0.00030517578125,0.13061607449871032
0.0534999999999999,0.0464936010539531,0.0006103515625,0.1295101885434795
0.054,0.0464813113212585,0.0006103515625,0.1282534112180433
0.0544999999999999,0.0464687533676624,0.00152587890625,0.12682321912496528
0.055,0.0464563965797424,0.00030517578125,0.12555272254474723
0.0554999999999999,0.0464439094066619,0.0006103515625,0.12419556236578563
0.056,0.0464316569268703,0.00030517578125,0.12299703032990195
0.0564999999999999,0.0464189797639846,0.0006103515625,0.1215252879765332
0.057,0.0464067757129669,0.00091552734375,0.12038736360445279
0.0574999999999999,0.0463944002985954,0.0006103515625,0.11911144673321876
0.058,0.0463817790150642,0.00091552734375,0.11769780537625563
0.0584999999999999,0.0463698394596576,0.00030517578125,0.11671998740404746
0.059,0.0463572517037391,0.00030517578125,0.11529205732501398
0.0595,0.0463447384536266,0.001220703125,0.11396368382006927
0.06,0.0463325418531894,0.00030517578125,0.11284137234425642
0.0605,0.0463201180100441,0.00030517578125,0.11156123183901807
0.061,0.0463076308369636,0.00030517578125,0.11026443693064936
0.0615,0.0462951809167861,0.0006103515625,0.10900964973172952
0.062,0.0462830737233161,0.0006103515625,0.1079575746809117
0.0625,0.046270478516817,0.0,0.10659365768982032
0.0629999999999999,0.0462582744657993,0.00030517578125,0.1054936224876998
0.0635,0.046246014535427,0.00030517578125,0.10434316799791485
0.0639999999999999,0.0462329983711242,0.0006103515625,0.10277342287196344
0.0645,0.0462212413549423,0.00030517578125,0.10199474456933005
0.0649999999999999,0.0462084040045738,-0.00030517578125,0.10052246286770454
0.0655,0.0461961738765239,0.0006103515625,0.0994639294361093
0.0659999999999999,0.0461835488677024,0.0006103515625,0.09816629458275833
0.0665,0.0461713336408138,0.00091552734375,0.09712388099685279
0.0669999999999999,0.0461590662598609,0.00091552734375,0.09602574993604093
0.0675,0.0461463928222656,0.0,0.09470375491829704
0.0679999999999999,0.0461343526840209,0.00091552734375,0.09376591481646716
0.0685,0.0461216382682323,0.00030517578125,0.09242843249367479
0.0689999999999999,0.0461093671619892,0.0006103515625,0.09138086170639159
0.0695,0.0460967980325222,0.00030517578125,0.09016216962189673
0.0699999999999999,0.0460845567286014,0.0006103515625,0.08914120780591962
0.0705,0.0460721626877784,0.00030517578125,0.08802371756249269
0.0709999999999999,0.0460595302283763,0.0,0.08679336541029926
0.0715,0.0460471734404563,0.00030517578125,0.08573916902343418
0.0719999999999999,0.0460347272455692,0.00091552734375,0.08463239992459123
0.0725,0.0460225604474544,0.00091552734375,0.08367329287302532
0.0729999999999999,0.0460100173950195,0.00030517578125,0.08250158100734835
0.0735,0.0459974519908428,0.00030517578125,0.08134701670707818
0.0739999999999999,0.0459853634238243,0.0006103515625,0.08045221041651007
0.0745,0.0459726154804229,0.00030517578125,0.07919948249662842
0.0749999999999999,0.0459603816270828,0.00091552734375,0.07824964629047756
0.0755,0.045947927981615,0.00030517578125,0.07717398915021656
0.0759999999999999,0.0459354519844055,0.00030517578125,0.07609987481519852
0.0765,0.0459232814610004,0.0,0.07518582785194579
0.0769999999999999,0.0459104925394058,0.0006103515625,0.0739562332092745
0.0775,0.0458981692790985,0.00030517578125,0.07299994373768111
0.0779999999999999,0.0458856076002121,-0.00030517578125,0.07192041806803968
0.0785,0.045873649418354,0.00030517578125,0.07114162335106139
0.0789999999999999,0.0458609014749527,0.00030517578125,0.0699492446613551
0.0795,0.0458487980067729,0.00030517578125,0.06910292398082377
0.0799999999999999,0.0458362661302089,0.0006103515625,0.06803339482203488
0.0805,0.0458234548568725,0.0006103515625,0.06686154500204462
0.0809999999999999,0.0458115004003047,0.00091552734375,0.06612367744561047
0.0815,0.0457989685237407,0.00030517578125,0.0650778911657863
0.0819999999999999,0.0457868315279483,0.00030517578125,0.0642317490912467
0.0825,0.0457740351557731,0.00030517578125,0.06307473203211038
0.0829999999999999,0.0457619577646255,0.0006103515625,0.06228381851152427
0.0835,0.0457495637238025,0.0006103515625,0.061327716696998484
0.0839999999999999,0.0457367748022079,0.0006103515625,0.060209830696760336
0.0845,0.0457248948514461,0.0006103515625,0.05952687015047512
0.0849999999999999,0.0457122735679149,0.001220703125,0.05847906822946836
0.0855,0.0457002036273479,0.0006103515625,0.05769906451864296
0.0859999999999999,0.0456874631345272,0.00030517578125,0.0566145994647247
0.0865,0.0456749871373176,0.0006103515625,0.05568253734895603
0.0869999999999999,0.0456629358232021,0.00030517578125,0.05493862515770012
0.0875,0.0456500276923179,0.00030517578125,0.053815327524702486
0.0879999999999999,0.0456382036209106,0.00030517578125,0.05318921849661319
0.0885,0.0456256009638309,0.0006103515625,0.052200527831778476
0.0889999999999999,0.0456133037805557,0.0006103515625,0.05136437066191902
0.0895,0.0456008538603782,0.00091552734375,0.05046711550222012
0.0899999999999999,0.0455883219838142,0.0006103515625,0.049550068043323084
0.0905,0.0455762036144733,0.00091552734375,0.04881370516954582
0.0909999999999999,0.0455635152757167,0.00030517578125,0.04783844935521233
0.0915,0.0455510206520557,0.0006103515625,0.04697001006958233
0.0919999999999999,0.0455386377871036,0.00030517578125,0.0461559451114699
0.0925,0.0455262400209903,0.0006103515625,0.04533774912024255
0.0929999999999999,0.0455139689147472,0.0006103515625,0.04457193212971419
0.0935,0.0455013029277324,0.00091552734375,0.04365388856708462
0.0939999999999999,0.0454891398549079,0.0,0.042948851118508886
0.0945,0.0454764403402805,0.00091552734375,0.04203334687258304
0.0949999999999999,0.0454642288386821,0.00091552734375,0.04132334846958661
0.0955,0.0454519614577293,0.0006103515625,0.04058381163130064
0.0959999999999999,0.0454394817352294,0.00091552734375,0.039765477838733444
0.0965,0.0454273335635662,0.0006103515625,0.03907906585453345
0.0969999999999999,0.045414600521326,-0.00030517578125,0.038177401836360925
0.0975,0.0454023145139217,0.00091552734375,0.03746160464042161
0.0979999999999999,0.0453900657594203,0.00030517578125,0.03675744303676372
0.0985,0.0453771613538265,0.00030517578125,0.035826856070016976
0.0989999999999999,0.0453649498522281,0.0006103515625,0.03516955916443762
0.0995,0.0453526005148887,0.00091552734375,0.03445755865989515
0.0999999999999999,0.0453401021659374,0.00030517578125,0.03369849312028537
0.1005,0.0453276149928569,-0.00030517578125,0.03295466964210446
0.1009999999999999,0.0453152768313884,0.00030517578125,0.03226932344598579
0.1015,0.0453029796481132,0.00091552734375,0.03159874069975798
0.1019999999999999,0.0452904663980007,0.00091552734375,0.030859098061283046
0.1025,0.045278362929821,0.0006103515625,0.030262010222898046
0.1029999999999999,0.0452657081186771,0.00030517578125,0.029483112565578895
0.1035,0.0452533401548862,0.0006103515625,0.0288146371840712
0.1039999999999999,0.0452407523989677,0.0,0.028083367992127666
0.1045,0.0452284887433052,0.00030517578125,0.027465004198937958
0.1049999999999999,0.0452162213623523,0.00030517578125,0.02684444993200563
0.1055,0.045203324407339,0.0006103515625,0.026038212800730744
0.1059999999999999,0.0451911203563213,0.0006103515625,0.025464658567904138
0.1065,0.0451784059405326,0.0006103515625,0.024738334474899808
0.1069999999999999,0.0451664067804813,0.0006103515625,0.024235417328487482
0.1075,0.0451535731554031,0.00030517578125,0.023484213185323795
0.1079999999999999,0.0451414249837398,0.0006103515625,0.022948548375445372
0.1085,0.0451291836798191,0.0,0.02238166128126811
0.1089999999999999,0.0451164953410625,0.00030517578125,0.02169310851324954
0.1095,0.0451044365763664,0.0006103515625,0.021191224783437268
0.1099999999999999,0.0450921617448329,0.00091552734375,0.020624696813149004
0.1105,0.0450798459351062,0.00091552734375,0.02005090794680852
0.1109999999999999,0.0450672768056392,0.0006103515625,0.019417157245607126
0.1115,0.0450549349188804,0.00091552734375,0.018855577085380434
0.1119999999999999,0.0450425669550895,0.0006103515625,0.018292935127644204
0.1125,0.0450300872325897,0.00030517578125,0.01770928701661732
0.1129999999999999,0.0450177527964115,0.00030517578125,0.01717133775031605
0.1135,0.0450052917003631,0.00030517578125,0.01660848587441876
0.1139999999999999,0.0449927076697349,0.0006103515625,0.01602610288279069
0.1145,0.044980552047491,0.00030517578125,0.01555557363165778
0.1149999999999999,0.0449682362377643,0.00030517578125,0.015047470243759771
0.1155,0.0449560843408107,0.00091552734375,0.01458173574204033
0.1159999999999999,0.0449431985616683,0.00030517578125,0.01395460383590308
0.1165,0.0449312292039394,0.0006103515625,0.013548316373779307
0.1169999999999999,0.0449186377227306,0.0006103515625,0.013004456307230468
0.1175,0.0449063666164875,0.0006103515625,0.012540613804804653
0.118,0.04489441588521,0.0006103515625,0.012147178384406057
0.1185,0.0448814108967781,0.0006103515625,0.011537684125012992
0.119,0.044869415462017,0.0,0.011152111610728066
0.1195,0.0448567643761634,0.00030517578125,0.010637206132231071
0.12,0.0448445752263069,0.0006103515625,0.010224413278785618
0.1205,0.0448318123817443,0.0,0.009708096504364437
0.121,0.0448197126388549,0.0006103515625,0.009328474066971475
0.1215,0.0448072627186775,0.00030517578125,0.008888035912849254
0.122,0.0447944030165672,0.00030517578125,0.008385931329788526
0.1225,0.0447824224829673,0.00030517578125,0.008049702944524674
0.123,0.0447698421776294,0.0006103515625,0.007613443029460515
0.1235,0.0447578504681587,0.0006103515625,0.007283600005422298
0.124,0.0447451584041118,0.00030517578125,0.0068442483695220204
0.1245,0.0447327718138694,0.0006103515625,0.006465526220002994
0.125,0.0447205491364002,0.0006103515625,0.006119185306878969
0.1254999999999999,0.0447081588208675,0.00030517578125,0.005754143695811386
0.126,0.0446958020329475,0.00091552734375,0.0054025530776026474
0.1264999999999999,0.0446829088032245,0.0006103515625,0.004986981710338332
0.127,0.0446707233786582,0.0006103515625,0.004680593471984038
0.1274999999999999,0.0446583926677703,0.0006103515625,0.004361391166579114
0.128,0.0446457751095294,0.0006103515625,0.004015495731979706
0.1284999999999999,0.0446338355541229,0.00030517578125,0.0037612410310866227
0.129,0.0446211770176887,0.0006103515625,0.0034291596152704333
0.1294999999999999,0.0446086712181568,0.00030517578125,0.0031272536304227036
0.13,0.0445962883532047,0.00030517578125,0.002849452723846793
0.1304999999999999,0.0445838682353496,0.00030517578125,0.0025779424443879806
0.131,0.0445720106363296,0.00030517578125,0.002369473212941994
0.1314999999999999,0.0445592626929283,0.00030517578125,0.00208648623516106
0.132,0.0445469766855239,-0.00030517578125,0.001857853257959261
0.1324999999999999,0.0445346161723136,0.00091552734375,0.0016336806767758454
0.133,0.0445223227143287,0.00091552734375,0.0014260440987802529
0.1334999999999999,0.0445098206400871,0.0006103515625,0.0012156683355381013
0.134,0.0444973893463611,0.00030517578125,0.00102408378765388
0.1344999999999999,0.0444850921630859,0.00030517578125,0.0008540896902045612
0.135,0.0444722846150398,0.00030517578125,0.000671250555717193
0.1354999999999999,0.0444603636860847,0.00091552734375,0.0005480243966148876
0.136,0.0444474630057811,0.00030517578125,0.00039619264314583505
0.1364999999999999,0.0444354079663753,0.00030517578125,0.00029489628194072023
0.137,0.0444223843514919,0.00091552734375,0.0001806200950438202
0.1374999999999999,0.0444104187190532,0.00030517578125,0.0001140372308513929
0.138,0.044398233294487,0.0,5.831965088745026e-05
0.1384999999999999,0.0443854182958602,0.0006103515625,1.5306805798524893e-05
0.139,0.0443735718727111,0.0006103515625,1.1240194254637463e-06
0.1394999999999999,0.0443604737520217,0.00030517578125,0.0
0.14,0.0443482585251331,0.0,0.0
0.1404999999999999,0.0443358160555362,0.0006103515625,0.0
0.141,0.044323731213808,0.0006103515625,0.0
0.1414999999999999,0.0443111434578895,0.00030517578125,0.0
0.142,0.0442983955144882,0.0,0.0
0.1424999999999999,0.0442863330245018,0.00091552734375,0.0
0.143,0.0442737899720668,0.00030517578125,0.0
0.1434999999999999,0.0442613139748573,0.0006103515625,0.0
0.144,0.044249303638935,0.0,0.0
0.1444999999999999,0.0442365072667598,0.00030517578125,0.0
0.145,0.0442241877317428,0.0006103515625,0.0
0.1454999999999999,0.0442119464278221,0.00030517578125,0.0
0.146,0.0441995784640312,0.00030517578125,0.0
0.1464999999999999,0.0441872701048851,0.00030517578125,0.0
0.147,0.044174674898386,0.0006103515625,0.0
0.1474999999999999,0.0441626347601413,0.00030517578125,0.0
0.148,0.0441499054431915,0.0006103515625,0.0
0.1484999999999999,0.0441379025578498,0.00030517578125,0.0
0.149,0.0441253893077373,0.001220703125,0.0
0.1494999999999999,0.0441130511462688,0.0,0.0
0.15,0.0441004708409309,0.00030517578125,0.0
0.1504999999999999,0.0440881811082363,0.00030517578125,0.0
0.151,0.0440758094191551,0.0006103515625,0.0
0.1514999999999999,0.0440632663667202,0.0,0.0
