time [s],Lmtc [m],STIM [ ],Fsee [N]
0.0,0.0435487776994705,0.0006103515625,0.41231169690149594
0.0004999999999999,0.0435489453375339,0.0006103515625,0.41252818820696463
0.001,0.0435484610497951,0.0006103515625,0.41189887812908366
0.0014999999999999,0.0435487851500511,0.0006103515625,0.412340996225256
0.002,0.0435485802590847,0.0006103515625,0.41207840012647085
0.0024999999999999,0.0435487851500511,0.0006103515625,0.41235580926718995
0.003,0.0435485765337944,0.0,0.4120873563389553
0.0034999999999999,0.0435487516224384,0.0006103515625,0.41232574376531156
0.004,0.0435487367212772,0.0006103515625,0.4123055539708678
0.0044999999999999,0.0435486249625682,-0.0006103515625,0.4121632968413573
0.005,0.0435486733913421,0.00030517578125,0.41223495051147313
0.0054999999999999,0.0435486324131488,0.00091552734375,0.41218812035553415
0.006,0.0435484908521175,0.00030517578125,0.412016832829738
0.0064999999999999,0.0435485541820526,0.0,0.4121181399820906
0.007,0.0435484088957309,0.00030517578125,0.4119467792935987
0.0074999999999999,0.0435479506850242,0.00091552734375,0.4113951323919271
0.008,0.0435463674366474,0.0006103515625,0.40946014827605404
0.0084999999999999,0.0435435734689235,0.00030517578125,0.4061684633670577
0.009,0.0435383282601833,0.00030517578125,0.400114829230514
0.0094999999999999,0.0435317046940326,0.00091552734375,0.39302234877017006
0.01,0.0435222052037715,0.0006103515625,0.3833931767621177
0.0104999999999999,0.0435102805495262,0.00030517578125,0.3726110166458531
0.011,0.0434964187443256,0.0006103515625,0.36226630235224716
0.0114999999999999,0.043480385094881,0.0006103515625,0.35312697686852706
0.012,0.0434628687798976,0.0006103515625,0.34631719479808853
0.0124999999999999,0.0434440597891807,0.00030517578125,0.3410138686782119
0.013,0.0434240624308586,0.0006103515625,0.3362442564339894
0.0134999999999999,0.0434033945202827,0.0006103515625,0.33185274519933144
0.014,0.0433823391795158,0.00091552734375,0.3276379584920363
0.0144999999999999,0.0433610938489437,0.0006103515625,0.323538088125456
0.015,0.0433395318686962,0.00030517578125,0.31936064634153527
0.0154999999999999,0.0433180704712867,0.00030517578125,0.31540134635795913
0.016,0.0432969480752944,0.00030517578125,0.31166884310471277
0.0164999999999999,0.0432759262621402,0.00030517578125,0.3078898128887679
0.017,0.0432551279664039,0.00030517578125,0.3042094783219421
0.0174999999999999,0.0432346239686012,0.00091552734375,0.30067510920898455
0.018,0.0432136543095111,0.0,0.29667983119822283
0.0184999999999999,0.0431934110820293,0.00030517578125,0.29340184851972884
0.019,0.0431732237339019,0.0006103515625,0.2899106518697581
0.0194999999999999,0.0431523248553276,0.0,0.2858796641689634
0.02,0.0431317873299121,0.00030517578125,0.28238429704901824
0.0204999999999999,0.0431115105748176,0.0006103515625,0.2789924182238948
0.021,0.0430910065770149,0.0006103515625,0.27535316189093206
0.0214999999999999,0.0430702269077301,0.0006103515625,0.27162993464912233
0.022,0.0430500954389572,0.00030517578125,0.2684443565440491
0.0224999999999999,0.0430294275283813,0.00030517578125,0.264734429355345
0.023,0.0430091507732868,0.0,0.2614374036421669
0.0234999999999999,0.0429887287318706,0.0006103515625,0.25796323393680515
0.024,0.0429683625698089,0.001220703125,0.2545771726923426
0.0244999999999999,0.042947731912136,0.00030517578125,0.2510264680059945
0.025,0.0429276414215564,0.00030517578125,0.24793443833728035
0.0254999999999999,0.0429069139063358,0.0,0.2442841446121347
0.026,0.0428862757980823,0.00030517578125,0.24089711178548565
0.0264999999999999,0.0428658500313758,0.0006103515625,0.2376753708830631
0.027,0.042845468968153,0.0006103515625,0.23444089131104004
0.0274999999999999,0.0428248979151248,0.0006103515625,0.2310766512105052
0.028,0.042804192751646,0.00030517578125,0.22769667141179406
0.0284999999999999,0.0427837148308754,0.0006103515625,0.22454096782849683
0.029,0.0427633225917816,0.0006103515625,0.22140413593182748
0.0294999999999999,0.0427429229021072,0.0,0.2182406191367082
0.03,0.0427224524319171,0.0,0.21504207987210308
0.0304999999999999,0.0427019819617271,0.00030517578125,0.21188811696348997
0.031,0.042681410908699,0.00030517578125,0.20869082393723143
0.0314999999999999,0.0426612012088298,0.0006103515625,0.20577854618501115
0.032,0.0426407605409622,0.00091552734375,0.20264043528070277
0.0324999999999999,0.0426202192902565,0.0,0.1994910908124121
0.033,0.0426000468432903,0.0006103515625,0.19664749142756963
0.0334999999999999,0.0425795093178749,0.0006103515625,0.19349949598737082
0.034,0.0425589829683303,0.0006103515625,0.19046221867767635
0.0344999999999999,0.0425386279821395,0.00030517578125,0.18756419623397144
0.035,0.0425182841718196,0.00091552734375,0.18465184040640206
0.0354999999999999,0.0424979589879512,0.0,0.18174513375640422
0.036,0.0424774251878261,0.0,0.1787370309034917
0.0364999999999999,0.0424571335315704,-0.00030517578125,0.17594735560060687
0.037,0.0424365922808647,0.0006103515625,0.17298247375826417
0.0374999999999999,0.042416263371706,0.0006103515625,0.17021766164268282
0.038,0.0423955917358398,0.00030517578125,0.16723148410737057
0.0384999999999999,0.0423751026391983,0.0006103515625,0.164452509256455
0.039,0.0423546135425567,0.00030517578125,0.16167490323379016
0.0394999999999999,0.0423345379531383,0.00030517578125,0.1591502220926476
0.04,0.0423138998448848,0.00030517578125,0.15620714689209758
0.0404999999999999,0.0422937236726284,0.0006103515625,0.1536531893819731
0.041,0.0422731712460517,0.0006103515625,0.15082648582329158
0.0414999999999999,0.0422526784241199,0.00091552734375,0.1481216741733729
0.042,0.0422323122620582,0.0006103515625,0.14552461024106716
0.0424999999999999,0.0422117710113525,0.00030517578125,0.1428212475957126
0.043,0.042191281914711,0.00030517578125,0.14019910359851853
0.0434999999999999,0.0421709716320037,0.00030517578125,0.1376999533550136
0.044,0.0421505905687809,0.00091552734375,0.1351363788966572
0.0444999999999999,0.0421303063631057,0.0006103515625,0.13264871393544006
0.045,0.0421098470687866,0.00030517578125,0.1300621382425984
0.0454999999999999,0.042089357972145,0.00030517578125,0.12751240350349805
0.046,0.0420687943696975,0.00091552734375,0.12496761390815964
0.0464999999999999,0.0420479923486709,-0.00030517578125,0.12233440116351162
0.047,0.0420278050005435,0.00030517578125,0.12012049811986215
0.0474999999999999,0.0420075356960296,0.00030517578125,0.11777995529616836
0.048,0.0419869199395179,0.0006103515625,0.11524204033646884
0.0484999999999999,0.0419666543602943,0.0006103515625,0.1129747452519856
0.049,0.0419459640979766,-0.00030517578125,0.1104539833902429
0.0494999999999999,0.0419257469475269,0.00030517578125,0.10827447754825678
0.05,0.0419051870703697,0.00030517578125,0.10586606484909981
0.0504999999999999,0.0418848022818565,0.0,0.10361241881661788
0.051,0.0418643988668918,0.00030517578125,0.10135235139560422
0.0514999999999999,0.041844218969345,0.0006103515625,0.09922106163487214
0.052,0.0418238826096057,0.00091552734375,0.09698430113750564
0.0524999999999999,0.0418036766350269,0.00030517578125,0.09484517689952471
0.053,0.04178312048316,0.0,0.09253110159370263
0.0534999999999999,0.0417627654969692,0.0006103515625,0.09039506552844007
0.054,0.0417423769831657,0.0006103515625,0.08825309864914413
0.0544999999999999,0.0417217090725898,-0.00030517578125,0.08599865059539032
0.055,0.0417017601430416,0.00030517578125,0.08416240941858504
0.0554999999999999,0.0416810102760791,-0.00030517578125,0.08186606051161925
0.056,0.0416606962680816,0.0006103515625,0.07988537672000888
0.0564999999999999,0.0416399389505386,-0.00030517578125,0.07769012517729547
0.057,0.041619699448347,0.0006103515625,0.07581380824967555
0.0574999999999999,0.0415992923080921,0.0006103515625,0.0738260967989985
0.058,0.041578933596611,0.0006103515625,0.07187890952219246
0.0584999999999999,0.0415583252906799,0.0006103515625,0.06983845868984453
0.059,0.0415379740297794,0.00030517578125,0.06796514441998795
0.0595,0.0415176078677177,0.0006103515625,0.06608509434710706
0.06,0.041497379541397,0.00030517578125,0.06427568640078704
0.0605,0.0414769388735294,0.00091552734375,0.06237443948546929
0.061,0.0414565466344356,0.0006103515625,0.06053138068084735
0.0615,0.0414360463619232,0.0,0.05866829793844977
0.062,0.0414155311882495,0.0006103515625,0.05683941181087102
0.0625,0.0413954965770244,0.0,0.055231105148795756
0.0629999999999999,0.0413750074803829,0.00030517578125,0.0534079132489681
0.0635,0.0413543060421943,0.0006103515625,0.051556505940833525
0.0639999999999999,0.0413339920341968,0.00030517578125,0.04991354548848628
0.0645,0.0413133203983306,0.0006103515625,0.04813543585935272
0.0649999999999999,0.0412928089499473,0.00091552734375,0.04646650653244539
0.0655,0.0412723906338214,0.0006103515625,0.04485359711858527
0.0659999999999999,0.0412522628903389,0.00091552734375,0.043360393574778756
0.0665,0.0412313789129257,0.0006103515625,0.041576636863639646
0.0669999999999999,0.041211262345314,0.00030517578125,0.04014363655046805
0.0675,0.0411908030509948,0.00030517578125,0.03856964549321482
0.0679999999999999,0.041170097887516,0.00030517578125,0.03694161109748213
0.0685,0.0411496981978416,0.0006103515625,0.03546769305751191
0.0689999999999999,0.041129644960165,0.0006103515625,0.034120558209283176
0.0695,0.041109099984169,-0.00030517578125,0.032597589328895366
0.0699999999999999,0.041088730096817,0.0006103515625,0.03117182521070395
0.0705,0.0410684645175933,0.00030517578125,0.029799449152036608
0.0709999999999999,0.0410478413105011,0.00030517578125,0.028330224878414002
0.0715,0.0410276837646961,0.00030517578125,0.027046101325118893
0.0719999999999999,0.0410073176026344,0.00030517578125,0.025703879003559395
0.0725,0.040986780077219,0.0,0.02433723061811582
0.0729999999999999,0.0409664660692215,0.0006103515625,0.02307008221426962
0.0735,0.040946003049612,0.0006103515625,0.02178028735926012
0.0739999999999999,0.0409256070852279,0.00030517578125,0.020538613933926135
0.0745,0.0409051328897476,0.00091552734375,0.01930142394311825
0.0749999999999999,0.0408844612538814,0.0006103515625,0.01804413014682134
0.0755,0.0408643260598182,0.0006103515625,0.01695853214657235
0.0759999999999999,0.0408436954021453,0.00091552734375,0.01576295733580474
0.0765,0.0408235602080822,0.0006103515625,0.01472029973547953
0.0769999999999999,0.0408029146492481,0.0,0.013576783486594558
0.0775,0.0407824292778968,0.0006103515625,0.012508475466799548
0.0779999999999999,0.0407618805766105,0.00030517578125,0.01145817327165681
0.0785,0.0407415553927421,0.00091552734375,0.010486057322455243
0.0789999999999999,0.0407211706042289,0.0006103515625,0.0095274618426427
0.0795,0.0407010428607463,0.0006103515625,0.008644828654712836
0.0799999999999999,0.0406804010272026,0.0006103515625,0.007696524584051605
0.0805,0.0406602993607521,0.0006103515625,0.0068795401937396415
0.0809999999999999,0.0406396090984344,0.0006103515625,0.005998804585194913
0.0815,0.0406191349029541,0.00030517578125,0.005197442810521049
0.0819999999999999,0.0405988618731498,0.00030517578125,0.004464562084686561
0.0825,0.0405783914029598,0.00030517578125,0.0037460930381958647
0.0829999999999999,0.0405578091740608,0.0,0.003063250788186758
0.0835,0.0405373647809028,0.00030517578125,0.002448354662003169
0.0839999999999999,0.0405170768499374,0.0006103515625,0.0019011259595092822
0.0845,0.0404964908957481,0.0006103515625,0.0013861638714467066
0.0849999999999999,0.0404759980738163,0.00030517578125,0.0009459929869278701
0.0855,0.0404551699757576,0.00091552734375,0.0005626288135450717
0.0859999999999999,0.0404346920549869,0.0006103515625,0.00028208927230555377
0.0865,0.0404145792126655,0.0006103515625,9.930270928418983e-05
0.0869999999999999,0.0403940044343471,0.00091552734375,5.540190214686479e-06
0.0875,0.0403738543391227,0.00091552734375,0.0
0.0879999999999999,0.0403529778122901,0.0006103515625,0.0
0.0885,0.0403329245746135,0.0006103515625,0.0
0.0889999999999999,0.0403128303587436,0.00030517578125,0.0
0.0895,0.0402923934161663,0.00091552734375,0.0
0.0899999999999999,0.0402717664837837,0.00091552734375,0.0
0.0905,0.0402514860033988,0.00091552734375,0.0
0.0909999999999999,0.0402311421930789,0.0006103515625,0.0
0.0915,0.0402107536792755,0.00091552734375,0.0
0.0919999999999999,0.0401902943849563,0.00030517578125,0.0
0.0925,0.0401700399816036,0.00030517578125,0.0
0.0929999999999999,0.0401498302817344,0.0006103515625,0.0
0.0935,0.0401291623711586,0.00030517578125,0.0
0.0939999999999999,0.0401087999343872,0.0,0.0
0.0945,0.0400884635746479,0.00030517578125,0.0
0.0949999999999999,0.0400679819285869,0.0006103515625,0.0
0.0955,0.0400474704802036,0.0006103515625,0.0
0.0959999999999999,0.0400271788239479,0.00030517578125,0.0
0.0965,0.0400065816938877,0.0006103515625,0.0
0.0969999999999999,0.0399864763021469,0.00091552734375,0.0
0.0975,0.0399659872055053,0.001220703125,0.0
0.0979999999999999,0.0399456359446048,0.00030517578125,0.0
0.0985,0.0399251021444797,0.0006103515625,0.0
0.0989999999999999,0.0399050004780292,0.00091552734375,0.0
0.0995,0.0398844145238399,0.00091552734375,0.0
0.0999999999999999,0.0398640483617782,0.00091552734375,0.0
0.1005,0.0398435331881046,0.0006103515625,0.0
0.1009999999999999,0.0398231148719787,0.0006103515625,0.0
0.1015,0.0398024544119834,0.00030517578125,0.0
0.1019999999999999,0.0397824458777904,0.0,0.0
0.1025,0.0397619642317295,0.0006103515625,0.0
0.1029999999999999,0.0397414974868297,0.00030517578125,0.0
0.1035,0.0397210419178009,0.00030517578125,0.0
0.1039999999999999,0.0397004559636116,0.0006103515625,0.0
0.1045,0.039680115878582,0.00030517578125,0.0
0.1049999999999999,0.03965974599123,-0.00030517578125,0.0
0.1055,0.0396390259265899,0.0006103515625,0.0
0.1059999999999999,0.0396190732717514,0.00030517578125,0.0
0.1065,0.0395982973277568,0.00030517578125,0.0
0.1069999999999999,0.0395777225494384,0.0006103515625,0.0
0.1075,0.0395576059818267,0.00030517578125,0.0
0.1079999999999999,0.0395370870828628,0.0006103515625,0.0
0.1085,0.0395163148641586,0.0006103515625,0.0
0.1089999999999999,0.0394962728023529,0.0006103515625,0.0
0.1095,0.0394760817289352,0.00030517578125,0.0
0.1099999999999999,0.039455659687519,0.00030517578125,0.0
0.1105,0.0394349098205566,0.0,0.0
0.1109999999999999,0.0394148789346218,0.0006103515625,0.0
0.1115,0.0393946394324302,0.00030517578125,0.0
0.1119999999999999,0.0393739975988864,0.0006103515625,0.0
0.1125,0.0393537953495979,0.00091552734375,0.0
0.1129999999999999,0.0393331423401832,0.001220703125,0.0
0.1135,0.0393125377595424,0.0006103515625,0.0
0.1139999999999999,0.0392924398183822,0.00030517578125,0.0
0.1145,0.0392718836665153,0.00030517578125,0.0
0.1149999999999999,0.0392515361309051,0.0,0.0
0.1155,0.0392310954630374,0.00091552734375,0.0
0.1159999999999999,0.0392105020582675,0.0006103515625,0.0
0.1165,0.0391900688409805,0.0006103515625,0.0
0.1169999999999999,0.0391695909202098,0.00030517578125,0.0
0.1175,0.0391494706273078,0.0006103515625,0.0
0.118,0.0391290485858917,0.0,0.0
0.1185,0.0391084477305412,0.0,0.0
0.119,0.0390881150960922,0.0006103515625,0.0
0.1195,0.0390679351985454,0.0006103515625,0.0
0.12,0.0390473306179046,0.0006103515625,0.0
0.1205,0.0390270464122295,0.0,0.0
0.121,0.0390066429972648,-0.00030517578125,0.0
0.1215,0.0389859229326248,0.00030517578125,0.0
0.122,0.0389652960002422,0.0006103515625,0.0
0.1225,0.0389449037611484,0.0006103515625,0.0
0.123,0.0389247350394725,0.0006103515625,0.0
0.1235,0.0389040596783161,0.0006103515625,0.0
0.124,0.0388835445046424,0.00030517578125,0.0
0.1245,0.0388635359704494,0.00030517578125,0.0
0.125,0.0388428121805191,0.00091552734375,0.0
0.1254999999999999,0.0388225056231021,0.00030517578125,0.0
0.126,0.038801684975624,0.0006103515625,0.0
0.1264999999999999,0.0387817732989788,0.0,0.0
0.127,0.0387612953782081,0.0006103515625,0.0
0.1274999999999999,0.0387412756681442,0.0006103515625,0.0
0.128,0.0387207046151161,0.00030517578125,0.0
0.1284999999999999,0.0387001782655715,0.00030517578125,0.0
0.129,0.0386796034872531,0.00030517578125,0.0
0.1294999999999999,0.0386595502495765,0.00091552734375,0.0
0.13,0.0386390164494514,0.00030517578125,0.0
0.1304999999999999,0.0386184975504875,0.0006103515625,0.0
0.131,0.0385983772575855,0.0006103515625,0.0
0.1314999999999999,0.0385777503252029,0.0,0.0
0.132,0.0385577678680419,0.0006103515625,0.0
0.1324999999999999,0.0385370776057243,0.00030517578125,0.0
0.133,0.038516741245985,0.0006103515625,0.0
0.1334999999999999,0.0384962484240531,0.00030517578125,0.0
0.134,0.0384756103157997,0.00091552734375,0.0
0.1344999999999999,0.0384554825723171,0.0006103515625,0.0
0.135,0.0384350083768367,0.0006103515625,0.0
0.1354999999999999,0.0384145379066467,0.0006103515625,0.0
0.136,0.0383940674364566,0.00091552734375,0.0
0.1364999999999999,0.0383736342191696,0.0006103515625,0.0
0.137,0.0383532382547855,0.00030517578125,0.0
0.1374999999999999,0.038333099335432,0.0006103515625,0.0
0.138,0.0383127741515636,0.0006103515625,0.0
0.1384999999999999,0.0382921025156974,0.00091552734375,0.0
0.139,0.0382718481123447,0.0006103515625,0.0
0.1394999999999999,0.0382512547075748,0.00030517578125,0.0
0.14,0.0382309295237064,0.00091552734375,0.0
0.1404999999999999,0.0382102318108081,0.0006103515625,0.0
0.141,0.0381902530789375,0.00091552734375,0.0
0.1414999999999999,0.0381696373224258,0.00030517578125,0.0
0.142,0.0381490997970104,0.0006103515625,0.0
0.1424999999999999,0.0381285920739173,0.0006103515625,0.0
0.143,0.0381084233522415,0.0006103515625,0.0
0.1434999999999999,0.0380875468254089,0.0006103515625,0.0
0.144,0.0380672104656696,0.0006103515625,0.0
0.1444999999999999,0.0380469337105751,0.00030517578125,0.0
0.145,0.0380263812839984,0.00030517578125,0.0
0.1454999999999999,0.0380057469010353,0.0006103515625,0.0
0.146,0.0379856340587139,0.0006103515625,0.0
0.1464999999999999,0.0379653163254261,0.00091552734375,0.0
0.147,0.0379446372389793,0.00091552734375,0.0
0.1474999999999999,0.0379244498908519,0.0006103515625,0.0
0.148,0.0379039905965328,0.0,0.0
0.1484999999999999,0.0378835722804069,0.0,0.0
0.149,0.0378632694482803,0.00030517578125,0.0
0.1494999999999999,0.0378429144620895,0.0006103515625,0.0
0.15,0.0378224849700927,0.0,0.0
0.1504999999999999,0.0378022193908691,0.00091552734375,0.0
0.151,0.0377819649875164,0.0006103515625,0.0
0.1514999999999999,0.0377611890435218,0.00091552734375,0.0
0.152,0.0377407521009445,0.00091552734375,0.0
0.1524999999999999,0.0377201586961746,0.0,0.0
0.153,0.0376996845006942,0.0006103515625,0.0
0.1534999999999999,0.0376792885363101,0.0006103515625,0.0
0.154,0.0376587957143783,0.0,0.0
0.1544999999999999,0.0376384481787681,0.00030517578125,0.0
0.155,0.0376179553568363,0.0006103515625,0.0
0.1554999999999999,0.0375976487994194,0.0006103515625,0.0
0.156,0.0375773236155509,0.00030517578125,0.0
0.1564999999999999,0.0375568382441997,0.00030517578125,0.0
0.157,0.037536296993494,-0.00030517578125,0.0
0.1574999999999999,0.0375161431729793,0.0006103515625,0.0
0.158,0.0374953337013721,0.0006103515625,0.0
0.1584999999999999,0.0374752804636955,0.0006103515625,0.0
0.159,0.0374546349048614,0.00091552734375,0.0
0.1594999999999999,0.0374343916773796,0.0006103515625,0.0
0.16,0.0374140180647373,0.00030517578125,0.0
0.1604999999999999,0.0373932570219039,0.00030517578125,0.0
0.161,0.0373728200793266,0.0006103515625,0.0
0.1614999999999999,0.037352155894041,0.0006103515625,0.0
0.162,0.0373315960168838,0.00030517578125,0.0
0.1624999999999999,0.0373113118112087,0.00091552734375,0.0
0.163,0.0372911468148231,0.0,0.0
0.1634999999999999,0.0372705087065696,0.0006103515625,0.0
0.164,0.0372502356767654,0.0006103515625,0.0
0.1644999999999999,0.0372299291193485,0.00030517578125,0.0
0.165,0.0372092276811599,0.0006103515625,0.0
0.1654999999999999,0.0371890403330326,0.0,0.0
0.166,0.0371685847640037,0.0006103515625,0.0
0.1664999999999999,0.0371483191847801,0.00030517578125,0.0
0.167,0.0371279194951057,0.0006103515625,0.0
0.1674999999999999,0.0371078252792358,0.00091552734375,0.0
0.168,0.0370871201157569,-0.00030517578125,0.0
0.1684999999999999,0.0370669290423393,0.00030517578125,0.0
0.169,0.0370464175939559,0.0006103515625,0.0
0.1694999999999999,0.0370260626077652,0.00030517578125,0.0
