time [s],Lmtc [m],STIM [ ],Fsee [N]
0.0,0.0435486659407615,0.00091552734375,0.4122915810993937
0.0004999999999999,0.0435486510396003,0.00030517578125,0.4122725218191891
0.001,0.0435486659407615,0.0,0.41229275732588677
0.0014999999999999,0.0435488000512123,0.0006103515625,0.41246606123399693
0.002,0.043548546731472,0.00030517578125,0.41213389257052385
0.0024999999999999,0.043548610061407,0.0006103515625,0.4122263473487506
0.003,0.0435483939945697,0.00030517578125,0.41195697752162075
0.0034999999999999,0.0435486063361167,0.0,0.4122507635031244
0.004,0.0435485728085041,0.00030517578125,0.4122105389924719
0.0044999999999999,0.0435485243797302,0.0006103515625,0.4121544684421984
0.005,0.0435484945774078,0.00030517578125,0.41212609523968535
0.0054999999999999,0.0435485802590847,0.0006103515625,0.41224561949991373
0.006,0.0435487776994705,0.0006103515625,0.412501835814963
0.0064999999999999,0.0435486063361167,0.00091552734375,0.41227262388988223
0.007,0.0435484275221824,0.0,0.4120465672636062
0.0074999999999999,0.0435480400919914,0.0,0.41157459075990654
0.008,0.0435471013188362,0.0006103515625,0.4104385735758102
0.0084999999999999,0.0435447506606578,0.00030517578125,0.4076187320920958
0.009,0.0435407236218452,0.0,0.40293889412705214
0.0094999999999999,0.0435346774756908,0.0006103515625,0.3962353910246807
0.01,0.0435263514518737,0.0006103515625,0.38755357266752644
0.0104999999999999,0.0435156114399433,0.00091552734375,0.3773470926066645
0.011,0.0435023307800293,0.00030517578125,0.36639542807511605
0.0114999999999999,0.0434872172772884,0.0006103515625,0.3566797698257212
0.012,0.0434701777994632,0.0006103515625,0.34881507533036826
0.0124999999999999,0.0434517562389373,0.0006103515625,0.3429670727116647
0.013,0.0434323251247406,-0.00030517578125,0.3381761015012411
0.0134999999999999,0.0434116385877132,0.00030517578125,0.33345649722802034
0.014,0.0433905869722366,0.00030517578125,0.32919679603725677
0.0144999999999999,0.0433694086968898,0.0006103515625,0.3251217427406827
0.015,0.0433483980596065,0.00030517578125,0.3212618679492185
0.0154999999999999,0.043326485902071,0.0,0.3168310322918579
0.016,0.0433058701455593,0.00030517578125,0.31353817319722255
0.0164999999999999,0.0432848036289215,0.0006103515625,0.3095327276965771
0.017,0.0432636328041553,0.0006103515625,0.30560132087828296
0.0174999999999999,0.0432429984211921,0.00030517578125,0.30209589647559687
0.018,0.043222352862358,0.00091552734375,0.29840501656357554
0.0184999999999999,0.0432018376886844,0.00030517578125,0.2948041042967576
0.019,0.0431811660528183,0.00030517578125,0.29105194998951933
0.0194999999999999,0.0431609265506267,0.00030517578125,0.28767941133236075
0.02,0.0431402549147605,0.0,0.28385084883454087
0.0204999999999999,0.0431198924779892,0.00030517578125,0.28042340700129
0.021,0.0430988781154155,0.00091552734375,0.2764638954694821
0.0214999999999999,0.0430789068341255,0.00091552734375,0.273460727017759
0.022,0.043058443814516,0.0006103515625,0.26977778292874605
0.0224999999999999,0.0430380254983902,0.00030517578125,0.2662872745706361
0.023,0.0430175513029098,0.00091552734375,0.2627790248093039
0.0234999999999999,0.0429968982934951,0.00030517578125,0.25921328026278617
0.024,0.0429763905704021,0.0006103515625,0.25581530510893086
0.0244999999999999,0.0429562292993068,0.0006103515625,0.25262341229927493
0.025,0.0429355949163436,0.00030517578125,0.24903131689485353
0.0254999999999999,0.0429150238633155,0.00030517578125,0.24563244518136618
0.026,0.042894460260868,0.00030517578125,0.24227284375557626
0.0264999999999999,0.0428741611540317,0.00030517578125,0.23908650352458086
0.027,0.0428536906838417,0.0006103515625,0.23573675292777105
0.0274999999999999,0.0428331680595874,0.00030517578125,0.23240979132923154
0.028,0.0428125150501728,0.00030517578125,0.2290573327877252
0.0284999999999999,0.0427916571497917,0.00030517578125,0.2256175957627261
0.029,0.0427716523408889,0.00030517578125,0.22285398226293232
0.0294999999999999,0.0427511371672153,0.0006103515625,0.2195042105899314
0.03,0.0427305400371551,0.0006103515625,0.2162292170679686
0.0304999999999999,0.0427098982036113,0.00030517578125,0.21300764277040413
0.031,0.0426896288990974,0.0006103515625,0.2100615113187008
0.0314999999999999,0.04266944155097,0.00091552734375,0.20706904688909683
0.032,0.0426488332450389,0.0006103515625,0.20378830687877847
0.0324999999999999,0.0426283553242683,0.0006103515625,0.20072230594326948
0.033,0.0426080226898193,0.0006103515625,0.19775770557088018
0.0334999999999999,0.0425876043736934,0.00030517578125,0.19472453356317682
0.034,0.0425673462450504,0.00030517578125,0.1918071154060583
0.0344999999999999,0.0425468459725379,0.00091552734375,0.1887355351735365
0.035,0.0425265952944755,0.00091552734375,0.1858873869878127
0.0354999999999999,0.042505782097578,0.00030517578125,0.1826694007742416
0.036,0.042485699057579,0.0006103515625,0.18004322353379312
0.0364999999999999,0.0424651429057121,0.00030517578125,0.17700497523334024
0.037,0.0424450114369392,0.0006103515625,0.17431427880902417
0.0374999999999999,0.0424243211746215,0.0006103515625,0.1712300688310937
0.038,0.0424038879573345,0.0006103515625,0.1684418756785721
0.0384999999999999,0.0423833318054676,0.00030517578125,0.16557344520644574
0.039,0.0423629023134708,0.0,0.1628280880404518
0.0394999999999999,0.0423426292836666,0.00030517578125,0.16016251680413532
0.04,0.0423222556710243,0.0,0.1574014874101452
0.0404999999999999,0.0423016883432865,0.00030517578125,0.1545718976158739
0.041,0.0422813668847084,0.00030517578125,0.15194964667397945
0.0414999999999999,0.042260892689228,0.0006103515625,0.14921978275199121
0.042,0.0422404371201992,0.0006103515625,0.14654876659798932
0.0424999999999999,0.0422200448811054,0.00030517578125,0.1439344673651404
0.043,0.0421998016536235,0.0,0.14141129785737455
0.0434999999999999,0.042179200798273,0.0,0.13866969778886307
0.044,0.042158767580986,0.0006103515625,0.1361096286176647
0.0444999999999999,0.0421384572982788,0.0006103515625,0.13363081061659002
0.045,0.0421178601682186,0.0006103515625,0.13098080933928377
0.0454999999999999,0.0420975871384143,0.00091552734375,0.1285789909265028
0.046,0.042077001184225,0.0,0.12597921815378155
0.0464999999999999,0.0420567132532596,0.0,0.12360638968418237
0.047,0.0420361347496509,0.0,0.12105888145085816
0.0474999999999999,0.0420152954757213,0.0,0.11843277137568707
0.048,0.0419951789081096,0.00030517578125,0.11629369452269722
0.0484999999999999,0.0419749431312084,0.00030517578125,0.11397599626457929
0.049,0.0419543012976646,0.00030517578125,0.11145257321823833
0.0494999999999999,0.0419340208172798,0.00030517578125,0.10920554693573431
0.05,0.0419136993587017,0.00030517578125,0.10691881290989355
0.0504999999999999,0.0418931730091571,0.00030517578125,0.1045375855885388
0.051,0.0418728254735469,0.0,0.10230339114873079
0.0514999999999999,0.041852630674839,0.00030517578125,0.10014289215191294
0.052,0.0418320707976818,0.0,0.09779214598476607
0.0524999999999999,0.0418115071952343,0.00091552734375,0.09551042679317251
0.053,0.0417911000549793,0.0006103515625,0.09335343072305081
0.0534999999999999,0.0417709164321422,0.00091552734375,0.09130587104991224
0.054,0.0417503342032432,0.00030517578125,0.08904117101657995
0.0544999999999999,0.0417303219437599,0.0,0.08711159254112273
0.055,0.0417098961770534,0.00030517578125,0.08493409838319807
0.0554999999999999,0.041689321398735,0.00030517578125,0.08274050489738742
0.056,0.0416689403355121,0.00091552734375,0.08070462614051375
0.0564999999999999,0.0416482985019683,0.00091552734375,0.07855592254612001
0.057,0.0416279770433902,0.0006103515625,0.07661680103052404
0.0574999999999999,0.0416074842214584,-0.00030517578125,0.07458771298172198
0.058,0.0415869131684303,0.0,0.07255475868710252
0.0584999999999999,0.0415669120848178,0.00030517578125,0.07081754071279867
0.059,0.0415461063385009,0.0006103515625,0.06866245301949453
0.0595,0.0415259562432765,0.0006103515625,0.0668976823654073
0.06,0.0415055118501186,0.0006103515625,0.06497141138018962
0.0605,0.04148506000638,0.0006103515625,0.06307874002944454
0.061,0.0414646156132221,0.0,0.061219569752299176
0.0615,0.0414441116154193,-0.00030517578125,0.05936062129745791
0.062,0.0414237380027771,0.0006103515625,0.05758792733237849
0.0625,0.041403442621231,0.00030517578125,0.05585620789115024
0.0629999999999999,0.0413831360638141,0.0006103515625,0.054124969128492
0.0635,0.0413625910878181,-0.00030517578125,0.0523133319016186
0.0639999999999999,0.0413422286510467,0.0,0.05062066564685733
0.0645,0.0413215495645999,0.0006103515625,0.04881842603429196
0.0649999999999999,0.0413014963269233,0.00091552734375,0.04731126110420012
0.0655,0.0412805750966072,0.0006103515625,0.04544856175966145
0.0659999999999999,0.0412602946162223,0.0006103515625,0.043911785153910005
0.0665,0.0412400774657726,0.00091552734375,0.04239026853710216
0.0669999999999999,0.0412193574011325,0.0006103515625,0.04068503492119714
0.0675,0.0411990880966186,0.00030517578125,0.03919749989812658
0.0679999999999999,0.0411785431206226,0.00030517578125,0.03761440541940718
0.0685,0.0411580391228199,0.0006103515625,0.036080708219736614
0.0689999999999999,0.0411376804113388,0.00030517578125,0.03462296016770781
0.0695,0.0411170497536659,0.00030517578125,0.033086824601348125
0.0699999999999999,0.0410972014069557,0.00091552734375,0.03184392823342354
0.0705,0.0410765446722507,0.0006103515625,0.030314466960365813
0.0709999999999999,0.0410561077296733,0.0,0.028906722730254936
0.0715,0.0410357154905796,0.00030517578125,0.027537629847555322
0.0719999999999999,0.0410154350101947,0.0006103515625,0.026223777252216245
0.0725,0.0409947969019413,0.00091552734375,0.024820930831143343
0.0729999999999999,0.0409745275974273,0.00030517578125,0.02356588978823699
0.0735,0.0409542582929134,0.0006103515625,0.02232282035562665
0.0739999999999999,0.040933895856142,0.00030517578125,0.021070893868439407
0.0745,0.0409133955836296,0.0,0.019808571809665367
0.0749999999999999,0.0408927723765373,0.00030517578125,0.018548681060255215
0.0755,0.0408725105226039,0.00091552734375,0.017416534417330664
0.0759999999999999,0.0408521331846714,0.00030517578125,0.016272165861876436
0.0765,0.0408317930996418,0.00030517578125,0.015162015617815298
0.0769999999999999,0.0408111959695816,0.00030517578125,0.014018388569837337
0.0775,0.0407906807959079,0.00030517578125,0.012931000149913845
0.0779999999999999,0.0407700464129447,0.00030517578125,0.011851351401036193
0.0785,0.0407499521970748,0.0006103515625,0.010916914314268241
0.0789999999999999,0.0407294854521751,0.00091552734375,0.009924995219289485
0.0795,0.0407089665532112,0.00030517578125,0.008957335859902294
0.0799999999999999,0.0406888350844383,0.00091552734375,0.008093604825099477
0.0805,0.0406682193279266,0.0006103515625,0.007173151572593338
0.0809999999999999,0.0406477265059948,0.00030517578125,0.0063155634936892845
0.0815,0.040627084672451,0.0006103515625,0.005476026735410424
0.0819999999999999,0.0406069010496139,0.0006103515625,0.004744688456125911
0.0825,0.0405862666666507,0.0006103515625,0.003990543084560463
0.0829999999999999,0.0405659638345241,0.00030517578125,0.003325363894616326
0.0835,0.040545642375946,0.0006103515625,0.002702256894010977
0.0839999999999999,0.0405250824987888,0.00091552734375,0.0021061805072451777
0.0845,0.0405046679079532,0.0006103515625,0.0015821790251401217
0.0849999999999999,0.0404841639101505,0.00030517578125,0.0011137140603203043
0.0855,0.0404635667800903,0.0,0.0007107640477620903
0.0859999999999999,0.0404427796602249,-0.00030517578125,0.0003810147702012233
0.0865,0.0404227189719677,0.00030517578125,0.00016529876818403635
0.0869999999999999,0.0404022708535194,0.00091552734375,3.0254637087577614e-05
0.0875,0.0403816103935241,0.00091552734375,0.0
0.0879999999999999,0.0403614602982997,0.00091552734375,0.0
0.0885,0.0403408966958522,0.0006103515625,0.0
0.0889999999999999,0.040320910513401,0.001220703125,0.0
0.0895,0.040300253778696,0.0006103515625,0.0
0.0899999999999999,0.0402801670134067,0.00091552734375,0.0
0.0905,0.0402597188949584,0.00030517578125,0.0
0.0909999999999999,0.0402392335236072,0.00030517578125,0.0
0.0915,0.0402187705039978,0.00030517578125,0.0
0.0919999999999999,0.0401986129581928,0.0,0.0
0.0925,0.0401779934763908,0.00030517578125,0.0
0.0929999999999999,0.0401575230062007,0.00030517578125,0.0
0.0935,0.0401374921202659,0.00091552734375,0.0
0.0939999999999999,0.0401167087256908,0.00030517578125,0.0
0.0945,0.0400965698063373,0.0006103515625,0.0
0.0949999999999999,0.0400760434567928,0.00030517578125,0.0
0.0955,0.0400558225810527,0.0006103515625,0.0
0.0959999999999999,0.0400351621210575,0.0006103515625,0.0
0.0965,0.0400148145854473,0.00091552734375,0.0
0.0969999999999999,0.0399945229291915,0.0006103515625,0.0
0.0975,0.0399737954139709,0.0,0.0
0.0979999999999999,0.039953876286745,0.00030517578125,0.0
0.0985,0.0399332232773304,0.00030517578125,0.0
0.0989999999999999,0.0399128794670105,0.0006103515625,0.0
0.0995,0.0398924835026264,0.0,0.0
0.0999999999999999,0.0398721173405647,0.0,0.0
0.1005,0.0398515723645687,0.0006103515625,0.0
0.1009999999999999,0.0398314744234085,0.00030517578125,0.0
0.1015,0.039811048656702,0.00030517578125,0.0
0.1019999999999999,0.0397905297577381,0.0006103515625,0.0
0.1025,0.0397702455520629,0.00091552734375,0.0
0.1029999999999999,0.0397496372461319,0.0006103515625,0.0
0.1035,0.0397292785346508,0.00091552734375,0.0
0.1039999999999999,0.039708949625492,0.0006103515625,0.0
0.1045,0.0396883934736251,0.0006103515625,0.0
0.1049999999999999,0.0396676063537597,0.00030517578125,0.0
0.1055,0.0396473556756973,0.00091552734375,0.0
0.1059999999999999,0.0396270081400871,0.0006103515625,0.0
0.1065,0.039606686681509,0.00030517578125,0.0
0.1069999999999999,0.0395860560238361,0.00030517578125,0.0
0.1075,0.0395657606422901,0.0006103515625,0.0
0.1079999999999999,0.0395451337099075,0.00030517578125,0.0
0.1085,0.0395250879228115,0.0006103515625,0.0
0.1089999999999999,0.0395046807825565,0.00030517578125,0.0
0.1095,0.0394840240478515,0.00030517578125,0.0
0.1099999999999999,0.0394637919962406,0.0,0.0
0.1105,0.039443515241146,0.0006103515625,0.0
0.1109999999999999,0.0394228473305702,0.0006103515625,0.0
0.1115,0.0394024886190891,0.00030517578125,0.0
0.1119999999999999,0.0393820963799953,0.0006103515625,0.0
0.1125,0.0393618829548358,0.001220703125,0.0
0.1129999999999999,0.0393411144614219,0.0006103515625,0.0
0.1135,0.039321057498455,0.00030517578125,0.0
0.1139999999999999,0.03930040076375,0.0006103515625,0.0
0.1145,0.0392799600958824,0.0006103515625,0.0
0.1149999999999999,0.0392596721649169,0.00091552734375,0.0
0.1155,0.0392395071685314,0.0006103515625,0.0
0.1159999999999999,0.0392185114324092,0.001220703125,0.0
0.1165,0.0391983203589916,0.0006103515625,0.0
0.1169999999999999,0.0391781479120254,0.00030517578125,0.0
0.1175,0.0391575284302234,0.0,0.0
0.118,0.0391370877623558,0.00091552734375,0.0
0.1185,0.039116445928812,0.001220703125,0.0
0.119,0.0390964820981025,0.0006103515625,0.0
0.1195,0.0390759110450744,0.0006103515625,0.0
0.12,0.0390555001795291,0.0,0.0
0.1205,0.0390352346003055,0.00030517578125,0.0
0.121,0.0390145368874073,0.0006103515625,0.0
0.1215,0.0389941781759262,0.00091552734375,0.0
0.122,0.0389735549688339,0.0006103515625,0.0
0.1225,0.0389531999826431,0.00091552734375,0.0
0.123,0.0389326065778732,0.0006103515625,0.0
0.1235,0.0389121323823928,0.00030517578125,0.0
0.124,0.0388918444514274,0.00030517578125,0.0
0.1245,0.0388713777065277,0.00091552734375,0.0
0.125,0.0388511568307876,0.00030517578125,0.0
0.1254999999999999,0.0388304851949214,0.00030517578125,0.0
0.126,0.0388100296258926,0.00091552734375,0.0
0.1264999999999999,0.0387895666062831,0.0,0.0
0.127,0.0387694239616394,0.0006103515625,0.0
0.1274999999999999,0.0387488678097724,0.00030517578125,0.0
0.128,0.0387287139892578,0.0006103515625,0.0
0.1284999999999999,0.0387082807719707,0.0006103515625,0.0
0.129,0.0386881418526172,0.0006103515625,0.0
0.1294999999999999,0.0386676490306854,0.0006103515625,0.0
0.13,0.0386473126709461,0.00091552734375,0.0
0.1304999999999999,0.0386268235743045,0.0006103515625,0.0
0.131,0.0386062413454055,0.00030517578125,0.0
0.1314999999999999,0.0385859571397304,0.0006103515625,0.0
0.132,0.038565706461668,0.00091552734375,0.0
0.1324999999999999,0.0385451354086399,0.0006103515625,0.0
0.133,0.0385246276855468,0.00030517578125,0.0
0.1334999999999999,0.0385042876005172,0.0006103515625,0.0
0.134,0.0384837836027145,0.0006103515625,0.0
0.1344999999999999,0.0384635254740715,0.00091552734375,0.0
0.135,0.0384429432451725,0.0006103515625,0.0
0.1354999999999999,0.038422767072916,0.0006103515625,0.0
0.136,0.0384021215140819,0.0018310546875,0.0
0.1364999999999999,0.0383817628026008,0.0006103515625,0.0
0.137,0.0383616276085376,0.00091552734375,0.0
0.1374999999999999,0.0383411794900894,0.00030517578125,0.0
0.138,0.0383205711841583,0.00091552734375,0.0
0.1384999999999999,0.0383003316819667,0.0006103515625,0.0
0.139,0.0382800884544849,0.0006103515625,0.0
0.1394999999999999,0.0382594838738441,0.0006103515625,0.0
0.14,0.038238625973463,0.0006103515625,0.0
0.1404999999999999,0.0382186062633991,0.00030517578125,0.0
0.141,0.038197748363018,0.00091552734375,0.0
0.1414999999999999,0.0381776578724384,0.00091552734375,0.0
0.142,0.0381571017205715,0.00091552734375,0.0
0.1424999999999999,0.0381372161209583,0.0006103515625,0.0
0.143,0.0381162129342556,0.0,0.0
0.1434999999999999,0.0380957908928394,0.0006103515625,0.0
0.144,0.0380753464996814,0.00030517578125,0.0
0.1444999999999999,0.0380549579858779,0.00030517578125,0.0
0.145,0.0380344912409782,0.0006103515625,0.0
0.1454999999999999,0.038014005869627,0.0006103515625,0.0
0.146,0.0379938259720802,0.00030517578125,0.0
0.1464999999999999,0.0379732064902782,0.0006103515625,0.0
0.147,0.0379531793296337,0.0006103515625,0.0
0.1474999999999999,0.0379326418042182,0.00030517578125,0.0
0.148,0.0379122644662857,0.00030517578125,0.0
0.1484999999999999,0.037891935557127,0.0006103515625,0.0
0.149,0.0378713831305503,0.0,0.0
0.1494999999999999,0.0378511436283588,0.00030517578125,0.0
0.15,0.0378305874764919,0.0006103515625,0.0
0.1504999999999999,0.037810206413269,0.0006103515625,0.0
0.151,0.0377897247672081,0.00091552734375,0.0
0.1514999999999999,0.0377690494060516,0.00030517578125,0.0
0.152,0.0377488508820533,0.00091552734375,0.0
0.1524999999999999,0.0377285294234752,0.0006103515625,0.0
0.153,0.0377080403268337,0.0006103515625,0.0
0.1534999999999999,0.0376876145601272,0.0006103515625,0.0
0.154,0.037667416036129,0.00091552734375,0.0
0.1544999999999999,0.0376466289162635,0.0006103515625,0.0
0.155,0.037626527249813,0.0006103515625,0.0
0.1554999999999999,0.0376057513058185,0.0,0.0
0.156,0.0375854782760143,0.00030517578125,0.0
0.1564999999999999,0.0375650040805339,0.0006103515625,0.0
0.157,0.0375446863472461,0.0,0.0
0.1574999999999999,0.0375242456793785,0.0006103515625,0.0
0.158,0.0375035777688026,0.0,0.0
0.1584999999999999,0.0374832153320312,0.00030517578125,0.0
0.159,0.0374630168080329,0.00030517578125,0.0
0.1594999999999999,0.0374423786997795,0.0006103515625,0.0
0.16,0.0374221839010715,0.0006103515625,0.0
0.1604999999999999,0.0374015122652053,0.0006103515625,0.0
0.161,0.0373812355101108,0.00091552734375,0.0
0.1614999999999999,0.0373607724905014,0.0006103515625,0.0
0.162,0.0373402200639247,0.00030517578125,0.0
0.1624999999999999,0.0373195111751556,0.0006103515625,0.0
0.163,0.0372990667819976,0.0006103515625,0.0
0.1634999999999999,0.0372786857187747,0.00030517578125,0.0
0.164,0.0372586734592914,0.0,0.0
0.1644999999999999,0.0372380316257476,0.0006103515625,0.0
0.165,0.0372174754738807,0.0006103515625,0.0
0.1654999999999999,0.0371971763670444,0.00030517578125,0.0
0.166,0.0371770299971103,0.001220703125,0.0
0.1664999999999999,0.0371565856039524,0.00030517578125,0.0
0.167,0.0371357537806034,0.0006103515625,0.0
0.1674999999999999,0.0371157713234424,0.0006103515625,0.0
0.168,0.0370955280959606,-0.00030517578125,0.0
0.1684999999999999,0.037075038999319,0.0006103515625,0.0
0.169,0.0370544083416461,0.001220703125,0.0
0.1694999999999999,0.0370343476533889,0.00030517578125,0.0
0.17,0.0370138511061668,0.00030517578125,0.0
