time [s],Lmtc [m],STIM [ ],Fsee [N]
0.0,0.0435488410294055,0.0006103515625,0.41232309612062856
0.0004999999999999,0.0435486361384391,0.0006103515625,0.41206135445524533
0.001,0.0435489937663078,0.00091552734375,0.41253626196609994
0.0014999999999999,0.0435484983026981,0.00030517578125,0.4118909277473428
0.002,0.0435487367212772,0.0006103515625,0.4122249702383141
0.0024999999999999,0.0435486137866973,0.00030517578125,0.4120751523855614
0.003,0.0435487329959869,0.00030517578125,0.41224385182314344
0.0034999999999999,0.0435485020279884,0.00030517578125,0.4119555270125487
0.004,0.0435485169291496,0.0006103515625,0.4120005273884397
0.0044999999999999,0.043548610061407,0.0006103515625,0.41214140982645475
0.005,0.0435484796762466,0.00030517578125,0.41198778022582816
0.0054999999999999,0.0435484163463115,0.0006103515625,0.4119285138493267
0.006,0.0435488484799861,0.0006103515625,0.41250556952391215
0.0064999999999999,0.043548721820116,0.00030517578125,0.412334113313023
0.007,0.0435485430061817,0.0,0.412104570660066
0.0074999999999999,0.0435487739741802,0.0,0.4124128382786407
0.008,0.0435487441718578,0.00030517578125,0.41236978025894444
0.0084999999999999,0.0435486957430839,0.00030517578125,0.4123044169787416
0.009,0.04354864731431,0.0,0.41224229952056357
0.0094999999999999,0.0435485504567623,0.00030517578125,0.41212281181824806
0.01,0.0435486510396003,0.00030517578125,0.41226287366760905
0.0104999999999999,0.0435482785105705,0.00030517578125,0.4117941584979594
0.011,0.0435475334525108,0.00030517578125,0.41088752017343216
0.0114999999999999,0.0435451827943325,0.0,0.4080313866382502
0.012,0.0435415804386138,0.00030517578125,0.40384501097039094
0.0124999999999999,0.0435361936688423,0.0006103515625,0.39785975125666007
0.013,0.04352742806077,0.00030517578125,0.3884445002287999
0.0134999999999999,0.043516606092453,0.0006103515625,0.37800827445694335
0.014,0.0435030199587345,0.0006103515625,0.3665917712021874
0.0144999999999999,0.0434874407947063,0.0,0.3564068332846886
0.015,0.0434691607952117,0.0,0.34771795149224
0.0154999999999999,0.0434490330517292,0.00091552734375,0.34132567490993126
0.016,0.0434267707169055,0.0006103515625,0.3356249001111744
0.0164999999999999,0.0434039756655693,0.00030517578125,0.3309148727294761
0.017,0.0433795452117919,0.00030517578125,0.32557463852328516
0.0174999999999999,0.0433549024164676,0.0006103515625,0.32081782528186914
0.018,0.0433294437825679,0.0006103515625,0.3157503790146137
0.0184999999999999,0.0433038771152496,0.0006103515625,0.31096236814593714
0.019,0.0432782806456089,0.00030517578125,0.30625201820139836
0.0194999999999999,0.0432529486715793,-0.00030517578125,0.301718967623272
0.02,0.0432276129722595,0.0,0.2971244147965644
0.0204999999999999,0.0432021878659725,0.0006103515625,0.29251930286767375
0.021,0.0431773215532302,0.0006103515625,0.28827707826350507
0.0214999999999999,0.0431519970297813,0.00030517578125,0.2836476752968836
0.022,0.0431268140673637,0.00030517578125,0.27924534027634607
0.0224999999999999,0.0431018397212028,0.0,0.2749637121714561
0.023,0.0430772900581359,0.0006103515625,0.2708970268877652
0.0234999999999999,0.043052464723587,0.0006103515625,0.266519223565116
0.024,0.0430273078382015,0.00030517578125,0.2620745528961155
0.0244999999999999,0.0430025458335876,0.0006103515625,0.25802045922967703
0.025,0.0429777763783931,0.00091552734375,0.2538598168991145
0.0254999999999999,0.0429530180990695,0.00030517578125,0.2497269914708911
0.026,0.0429281927645206,0.00091552734375,0.24558114875039333
0.0264999999999999,0.0429032705724239,0.00091552734375,0.2414452366421116
0.027,0.0428785420954227,0.0006103515625,0.23746853917104757
0.0274999999999999,0.0428531840443611,0.00030517578125,0.23311892780262014
0.028,0.0428288280963897,0.0006103515625,0.2295563829746927
0.0284999999999999,0.0428038164973259,0.00030517578125,0.22537507475718668
0.029,0.0427793301641941,-0.00030517578125,0.22166287873704532
0.0294999999999999,0.0427544601261615,-0.0006103515625,0.21764055468038737
0.03,0.0427294112741947,0.0006103515625,0.21364843033905143
0.0304999999999999,0.0427047051489353,0.00030517578125,0.20993958671186855
0.031,0.0426800176501274,0.00091552734375,0.2061886259559535
0.0314999999999999,0.042655237019062,0.00091552734375,0.20238446087424397
0.032,0.0426303260028362,0.0,0.19858354612426993
0.0324999999999999,0.0426056794822216,0.0006103515625,0.19499238845141653
0.033,0.0425808280706405,0.0006103515625,0.19124120964846075
0.0334999999999999,0.0425564870238304,0.00091552734375,0.18784474029124765
0.034,0.0425315499305725,0.0006103515625,0.18402356939403958
0.0344999999999999,0.042507067322731,0.0006103515625,0.18063888212503457
0.035,0.0424819774925708,0.0006103515625,0.17681679177146267
0.0354999999999999,0.0424576066434383,0.0006103515625,0.1736111375365286
0.036,0.0424325615167617,0.0006103515625,0.1698600723286969
0.0364999999999999,0.0424081794917583,0.00030517578125,0.16665789226810768
0.037,0.0423832237720489,0.0006103515625,0.16304481674031354
0.0374999999999999,0.0423584915697574,0.0006103515625,0.15970930723058183
0.038,0.0423338711261749,0.0006103515625,0.15642373861847228
0.0384999999999999,0.0423092916607856,0.0,0.15315774495896717
0.039,0.0422843061387538,0.0006103515625,0.14968161031615268
0.0394999999999999,0.0422596260905265,0.0006103515625,0.14649893168440847
0.04,0.0422349832952022,0.00030517578125,0.14331440931937386
0.0404999999999999,0.0422104448080062,0.00091552734375,0.1401935389732082
0.041,0.0421857461333274,0.0006103515625,0.1369841377317908
0.0414999999999999,0.0421610213816165,0.0006103515625,0.13382372043320304
0.042,0.0421363413333892,0.00030517578125,0.13073590669960403
0.0424999999999999,0.0421116016805172,0.00030517578125,0.12764603261443844
0.043,0.0420867279171943,0.0,0.12452590132227044
0.0434999999999999,0.0420621745288372,0.00091552734375,0.12163955608782444
0.044,0.0420373864471912,0.00030517578125,0.11859661688533285
0.0444999999999999,0.0420127846300601,0.00030517578125,0.11571530193126728
0.045,0.0419879779219627,0.00091552734375,0.1127325412329072
0.0454999999999999,0.0419630669057369,0.0006103515625,0.10975864678752476
0.046,0.0419387146830558,0.00091552734375,0.10713228903938234
0.0464999999999999,0.0419142618775367,0.00030517578125,0.10437329409308609
0.047,0.0418895371258258,0.00030517578125,0.10149570692062439
0.0474999999999999,0.0418646857142448,0.0006103515625,0.09863842174758665
0.048,0.0418402813374996,0.0006103515625,0.0960787719229256
0.0484999999999999,0.0418154671788215,0.00030517578125,0.0932782735634887
0.049,0.041790772229433,0.00091552734375,0.09062263325188456
0.0494999999999999,0.0417660102248191,0.00091552734375,0.08795834837916801
0.05,0.0417415983974933,0.00030517578125,0.0855036165423217
0.0504999999999999,0.0417165867984294,0.0006103515625,0.08274201760211837
0.051,0.0416921153664588,-0.00030517578125,0.08034682633320686
0.0514999999999999,0.0416675768792629,0.0,0.07788562589346666
0.052,0.0416428707540035,0.00030517578125,0.07536752413412896
0.0524999999999999,0.041618138551712,0.0,0.07289404855984256
0.053,0.0415935404598712,0.0006103515625,0.07052639342974963
0.0534999999999999,0.0415687374770641,0.0006103515625,0.06808966661237723
0.054,0.0415438897907733,0.0006103515625,0.06569070284121865
0.0544999999999999,0.0415195822715759,0.0006103515625,0.06356244069024784
0.055,0.0414949767291545,0.00030517578125,0.06126676369816758
0.0554999999999999,0.0414701886475086,0.0006103515625,0.058944226786627404
0.056,0.0414454452693462,0.0006103515625,0.05670528907596134
0.0564999999999999,0.0414207205176353,0.00091552734375,0.054511780926580516
0.057,0.0413962490856647,0.00030517578125,0.05245136492845968
0.0574999999999999,0.0413712449371814,0.0006103515625,0.05018518712317985
0.058,0.0413469858467578,0.0,0.048286014874900265
0.0584999999999999,0.0413220338523387,0.00091552734375,0.046098452966163724
0.059,0.0412971600890159,0.0006103515625,0.0440243679845055
0.0595,0.0412725768983364,0.00030517578125,0.04210068439723053
0.06,0.0412479415535926,0.0006103515625,0.04016646700804937
0.0605,0.0412231646478176,0.0006103515625,0.0382113710925639
0.061,0.0411984138190746,0.0006103515625,0.0363098643275605
0.0615,0.0411739014089107,0.00091552734375,0.03452465542162783
0.062,0.041148841381073,0.00030517578125,0.03257606941457819
0.0625,0.0411244109272956,0.00091552734375,0.0308984301304462
0.0629999999999999,0.0410996191203594,0.00030517578125,0.02910891233486697
0.0635,0.04107516258955,0.00091552734375,0.02746523609326602
0.0639999999999999,0.0410505086183548,0.0006103515625,0.025777783229886345
0.0645,0.0410258769989013,0.0006103515625,0.02413686423946421
0.0649999999999999,0.0410010628402233,0.00030517578125,0.022482746789887716
0.0655,0.0409766621887683,0.00091552734375,0.020987535311890276
0.0659999999999999,0.0409521199762821,0.00030517578125,0.01947246148173235
0.0665,0.0409273654222488,0.00091552734375,0.017941141318032185
0.0669999999999999,0.040902454406023,0.0006103515625,0.016424507971299858
0.0675,0.0408775694668293,0.00030517578125,0.014971750691969404
0.0679999999999999,0.0408529005944728,0.00030517578125,0.013617687408815339
0.0685,0.0408281683921813,0.0006103515625,0.012287818362460446
0.0689999999999999,0.0408035553991794,0.00030517578125,0.011025882030478737
0.0695,0.0407788753509521,0.0006103515625,0.009791784285074788
0.0699999999999999,0.0407542362809181,0.0006103515625,0.008612958767857734
0.0705,0.0407292172312736,0.0006103515625,0.00742011111909689
0.0709999999999999,0.0407049171626567,0.0006103515625,0.006407021422005925
0.0715,0.0406802482903003,0.0006103515625,0.005381872217138941
0.0719999999999999,0.0406555533409118,0.00030517578125,0.0044166998587282826
0.0725,0.0406306274235248,0.00030517578125,0.003494401342500297
0.0729999999999999,0.0406060852110385,0.0006103515625,0.002695879476837036
0.0735,0.0405814126133918,0.0006103515625,0.001963755838489063
0.0739999999999999,0.0405567437410354,0.0006103515625,0.0013251117281200006
0.0745,0.0405320227146148,0.00030517578125,0.0007891407128749575
0.0749999999999999,0.0405071601271629,0.00030517578125,0.0003705638998385057
0.0755,0.0404820516705513,0.00091552734375,9.449206301604543e-05
0.0759999999999999,0.0404575355350971,0.0006103515625,8.87355895125046e-08
0.0765,0.040432795882225,0.0006103515625,0.0
0.0769999999999999,0.0404081828892231,0.00030517578125,0.0
0.0775,0.040383443236351,0.00030517578125,0.0
0.0779999999999999,0.0403587892651557,0.00030517578125,0.0
0.0785,0.0403343923389911,0.0006103515625,0.0
0.0789999999999999,0.0403095223009586,0.0006103515625,0.0
0.0795,0.040284689515829,0.00030517578125,0.0
0.0799999999999999,0.0402603596448898,0.00091552734375,0.0
0.0805,0.0402356088161468,0.0006103515625,0.0
0.0809999999999999,0.0402110330760479,0.00030517578125,0.0
0.0815,0.0401862561702728,0.00030517578125,0.0
0.0819999999999999,0.0401615798473358,0.0,0.0
0.0825,0.0401371344923973,0.00030517578125,0.0
0.0829999999999999,0.0401123166084289,0.0006103515625,0.0
0.0835,0.0400881208479404,0.0006103515625,0.0
0.0839999999999999,0.0400631986558437,0.0006103515625,0.0
0.0845,0.0400385074317455,0.00030517578125,0.0
0.0849999999999999,0.0400140471756458,0.00030517578125,0.0
0.0855,0.0399891063570976,0.00030517578125,0.0
0.0859999999999999,0.0399644039571285,0.0006103515625,0.0
0.0865,0.0399399995803833,0.00030517578125,0.0
0.0869999999999999,0.0399153530597686,0.0006103515625,0.0
0.0875,0.0398903749883174,0.0006103515625,0.0
0.0879999999999999,0.0398658588528633,0.00091552734375,0.0
0.0885,0.0398412682116031,0.0,0.0
0.0889999999999999,0.0398162640631198,0.00030517578125,0.0
0.0895,0.0397915244102478,0.00030517578125,0.0
0.0899999999999999,0.0397669896483421,0.0006103515625,0.0
0.0905,0.0397423207759857,0.0,0.0
0.0909999999999999,0.0397174544632434,0.0006103515625,0.0
0.0915,0.0396931208670139,0.00030517578125,0.0
0.0919999999999999,0.0396682508289814,0.00030517578125,0.0
0.0925,0.0396436974406242,0.00030517578125,0.0
0.0929999999999999,0.0396188125014305,0.00091552734375,0.0
0.0935,0.039594180881977,0.00030517578125,0.0
0.0939999999999999,0.0395694114267826,0.00030517578125,0.0
0.0945,0.0395446345210075,0.00030517578125,0.0
0.0949999999999999,0.039520114660263,0.0006103515625,0.0
0.0955,0.0394955426454544,0.00030517578125,0.0
0.0959999999999999,0.0394709110260009,0.0006103515625,0.0
0.0965,0.0394461452960968,0.00030517578125,0.0
0.0969999999999999,0.0394218936562538,0.0006103515625,0.0
0.0975,0.0393969118595123,0.00091552734375,0.0
0.0979999999999999,0.0393721982836723,0.0006103515625,0.0
0.0985,0.0393474623560905,0.0006103515625,0.0
0.0989999999999999,0.0393229275941848,-0.00030517578125,0.0
0.0995,0.0392981506884098,0.0,0.0
0.0999999999999999,0.039273727685213,0.00091552734375,0.0
0.1005,0.0392487272620201,0.0006103515625,0.0
0.1009999999999999,0.0392240621149539,0.0006103515625,0.0
0.1015,0.0391996391117572,0.00030517578125,0.0
0.1019999999999999,0.0391747690737247,0.00030517578125,0.0
0.1025,0.0391500033438205,0.00030517578125,0.0
0.1029999999999999,0.039125483483076,0.0,0.0
0.1035,0.0391007959842681,0.00030517578125,0.0
0.1039999999999999,0.0390764065086841,0.001220703125,0.0
0.1045,0.0390512719750404,0.00030517578125,0.0
0.1049999999999999,0.0390267446637153,-0.00030517578125,0.0
0.1055,0.0390019789338111,0.00030517578125,0.0
0.1059999999999999,0.038977138698101,0.0006103515625,0.0
0.1065,0.0389524139463901,0.00030517578125,0.0
0.1069999999999999,0.0389278642833232,0.00091552734375,0.0
0.1075,0.0389028154313564,0.0006103515625,0.0
0.1079999999999999,0.0388782359659671,0.00030517578125,0.0
0.1085,0.038853857666254,0.00030517578125,0.0
0.1089999999999999,0.038829032331705,0.0006103515625,0.0
0.1095,0.0388044714927673,0.00030517578125,0.0
0.1099999999999999,0.0387795343995094,0.0006103515625,0.0
0.1105,0.0387550890445709,0.00030517578125,0.0
0.1109999999999999,0.0387304797768592,0.0,0.0
0.1115,0.0387059301137924,0.0006103515625,0.0
0.1119999999999999,0.0386809781193733,0.0,0.0
0.1125,0.0386563129723072,0.0,0.0
0.1129999999999999,0.0386318452656269,0.00091552734375,0.0
0.1135,0.038607258349657,0.00030517578125,0.0
0.1139999999999999,0.0385824106633663,0.00091552734375,0.0
0.1145,0.0385582223534584,0.00030517578125,0.0
0.1149999999999999,0.0385331884026527,0.0006103515625,0.0
0.1155,0.0385081879794597,0.00091552734375,0.0
0.1159999999999999,0.0384836867451667,0.0006103515625,0.0
0.1165,0.0384590774774551,0.0006103515625,0.0
0.1169999999999999,0.0384344756603241,0.00030517578125,0.0
0.1175,0.0384097658097744,-0.00030517578125,0.0
0.118,0.0383852086961269,0.001220703125,0.0
0.1185,0.0383607447147369,0.0006103515625,0.0
0.119,0.0383357778191566,0.0,0.0
0.1195,0.0383111909031868,0.0006103515625,0.0
0.12,0.038286305963993,0.00030517578125,0.0
0.1205,0.0382618531584739,0.0006103515625,0.0
0.121,0.0382369607686996,0.0006103515625,0.0
0.1215,0.0382125116884708,0.0006103515625,0.0
0.122,0.0381878837943077,0.0006103515625,0.0
0.1225,0.0381628386676311,0.0,0.0
0.123,0.0381382443010807,0.00030517578125,0.0
0.1235,0.0381132774055004,0.00030517578125,0.0
0.124,0.0380889065563678,0.0,0.0
0.1245,0.0380640625953674,0.00030517578125,0.0
0.125,0.0380396731197834,0.00091552734375,0.0
0.1254999999999999,0.0380145609378814,0.00091552734375,0.0
0.126,0.0379900485277175,-0.00030517578125,0.0
0.1264999999999999,0.0379652082920074,0.00030517578125,0.0
0.127,0.0379407554864883,0.0006103515625,0.0
0.1274999999999999,0.0379161275923252,0.00030517578125,0.0
0.128,0.0378910414874553,0.0006103515625,0.0
0.1284999999999999,0.0378665775060653,0.00030517578125,0.0
0.129,0.0378418713808059,0.00030517578125,0.0
0.1294999999999999,0.0378173291683197,0.0,0.0
0.13,0.0377926640212535,0.0006103515625,0.0
0.1304999999999999,0.0377681069076061,0.0006103515625,0.0
0.131,0.0377433337271213,0.0006103515625,0.0
0.1314999999999999,0.0377185270190238,0.0006103515625,0.0
0.132,0.037694077938795,0.0006103515625,0.0
0.1324999999999999,0.0376692004501819,0.00030517578125,0.0
0.133,0.0376443825662136,0.00091552734375,0.0
0.1334999999999999,0.0376198887825012,0.0006103515625,0.0
0.134,0.037595048546791,0.00091552734375,0.0
0.1344999999999999,0.037570483982563,0.00030517578125,0.0
0.135,0.0375456474721431,0.0006103515625,0.0
0.1354999999999999,0.0375210046768188,-0.00030517578125,0.0
0.136,0.0374964140355587,0.0006103515625,0.0
0.1364999999999999,0.0374715998768806,-0.00030517578125,0.0
0.137,0.0374470204114913,0.00030517578125,0.0
0.1374999999999999,0.0374222509562969,0.0006103515625,0.0
0.138,0.0373973585665226,0.00030517578125,0.0
0.1384999999999999,0.0373728089034557,0.00030517578125,0.0
0.139,0.0373480357229709,0.00030517578125,0.0
0.1394999999999999,0.0373232588171958,0.00030517578125,0.0
0.14,0.0372984819114208,0.00030517578125,0.0
0.1404999999999999,0.037273671478033,0.0006103515625,0.0
0.141,0.0372489057481288,0.00030517578125,0.0
0.1414999999999999,0.0372246801853179,0.0006103515625,0.0
0.142,0.0371998138725757,0.0006103515625,0.0
0.1424999999999999,0.0371753647923469,0.00030517578125,0.0
0.143,0.0371504127979278,0.00091552734375,0.0
0.1434999999999999,0.0371263846755027,0.0006103515625,0.0
0.144,0.0371015667915344,0.00091552734375,0.0
0.1444999999999999,0.0370765030384063,0.0,0.0
0.145,0.0370522402226924,0.0006103515625,0.0
0.1454999999999999,0.0370273366570472,0.0006103515625,0.0
0.146,0.0370025858283042,0.00030517578125,0.0
0.1464999999999999,0.0369780510663986,0.001220703125,0.0
0.147,0.0369534790515899,0.0,0.0
0.1474999999999999,0.0369290933012962,0.0,0.0
0.148,0.0369040556252002,0.0006103515625,0.0
0.1484999999999999,0.0368794873356819,0.0,0.0
0.149,0.0368548259139061,0.00030517578125,0.0
0.1494999999999999,0.036830011755228,0.00030517578125,0.0
0.15,0.036805622279644,0.00030517578125,0.0
0.1504999999999999,0.0367807485163211,0.00091552734375,0.0
0.151,0.0367560535669326,0.0006103515625,0.0
0.1514999999999999,0.0367314741015434,0.0006103515625,0.0
0.152,0.0367070958018302,0.0006103515625,0.0
0.1524999999999999,0.0366817973554134,0.0006103515625,0.0
0.153,0.0366573184728622,0.00030517578125,0.0
0.1534999999999999,0.036632876843214,0.00091552734375,0.0
0.154,0.0366081148386001,0.0006103515625,0.0
0.1544999999999999,0.0365830212831497,0.00030517578125,0.0
0.155,0.0365586392581462,0.00030517578125,0.0
0.1554999999999999,0.0365337431430816,0.001220703125,0.0
0.156,0.0365091860294342,0.00030517578125,0.0
0.1564999999999999,0.0364845618605613,0.00030517578125,0.0
0.157,0.0364596135914325,0.00030517578125,0.0
0.1574999999999999,0.0364349968731403,0.00091552734375,0.0
0.158,0.0364106222987175,0.00030517578125,0.0
0.1584999999999999,0.0363859087228775,0.0,0.0
0.159,0.0363610796630382,0.0006103515625,0.0
0.1594999999999999,0.0363364517688751,0.00091552734375,0.0
0.16,0.0363116562366485,0.00030517578125,0.0
0.1604999999999999,0.0362871848046779,0.0006103515625,0.0
0.161,0.0362620986998081,0.00030517578125,0.0
0.1614999999999999,0.036237496882677,0.00030517578125,0.0
0.162,0.0362130738794803,0.00030517578125,0.0
0.1624999999999999,0.0361884608864784,0.0006103515625,0.0
0.163,0.0361635200679302,0.0,0.0
0.1634999999999999,0.0361390076577663,0.00091552734375,0.0
0.164,0.0361145250499248,0.00030517578125,0.0
0.1644999999999999,0.0360896363854408,0.00030517578125,0.0
0.165,0.0360648669302463,0.0006103515625,0.0
0.1654999999999999,0.0360403023660182,0.0,0.0
0.166,0.0360155440866947,0.00030517578125,0.0
0.1664999999999999,0.0359910242259502,0.00030517578125,0.0
0.167,0.0359662286937236,0.0006103515625,0.0
0.1674999999999999,0.0359419807791709,0.00030517578125,0.0
0.168,0.0359166301786899,0.00030517578125,0.0
0.1684999999999999,0.0358921103179454,0.0006103515625,0.0
0.169,0.0358674302697181,0.0006103515625,0.0
0.1694999999999999,0.0358426496386528,0.0006103515625,0.0
0.17,0.0358181446790695,0.00030517578125,0.0
0.1704999999999999,0.0357932336628437,0.00091552734375,0.0
0.171,0.0357684940099716,0.00030517578125,0.0
0.1714999999999999,0.0357435122132301,0.00030517578125,0.0
0.172,0.0357191860675811,0.00030517578125,0.0
0.1725,0.0356948561966419,0.00030517578125,0.0
0.173,0.0356707461178302,0.00091552734375,0.0
