time [s],Lmtc [m],STIM [ ],Fsee [N]
0.0,0.043548934161663,0.00030517578125,0.41233986002596856
0.0004999999999999,0.0435484535992145,0.00091552734375,0.41172895314038693
0.001,0.0435487143695354,0.0006103515625,0.41210430615754995
0.0014999999999999,0.0435485281050205,0.00091552734375,0.41188417374554026
0.002,0.0435485951602458,0.00030517578125,0.4120016988558694
0.0024999999999999,0.0435486063361167,0.0006103515625,0.4120386350324559
0.003,0.0435488186776638,0.0006103515625,0.41232839683263756
0.0034999999999999,0.0435484237968921,0.00030517578125,0.4118257013726363
0.004,0.0435485914349556,0.00091552734375,0.4120742950813666
0.0044999999999999,0.0435484163463115,0.00091552734375,0.41186838206398324
0.005,0.0435487069189548,0.0006103515625,0.41226888636074244
0.0054999999999999,0.0435484610497951,-0.00030517578125,0.41195870490440567
0.006,0.0435486212372779,0.00091552734375,0.4121870038851098
0.0064999999999999,0.0435486212372779,0.00030517578125,0.41219445193708615
0.007,0.0435487702488899,0.00030517578125,0.41239185369293874
0.0074999999999999,0.0435487516224384,0.00030517578125,0.41236425558113426
0.008,0.043548684567213,0.0006103515625,0.4122753456628831
0.0084999999999999,0.0435483083128929,0.0006103515625,0.4117985125876031
0.009,0.0435485653579235,0.0,0.41216096362800786
0.0094999999999999,0.0435489118099212,0.0006103515625,0.41261393912551186
0.01,0.0435486361384391,0.00091552734375,0.4122459966228777
0.0104999999999999,0.0435484237968921,0.0006103515625,0.4119798984437287
0.011,0.0435483530163764,0.00030517578125,0.41191301606560554
0.0114999999999999,0.0435477457940578,0.0006103515625,0.4111744143859754
0.012,0.0435462109744548,0.0006103515625,0.4093173628742869
0.0124999999999999,0.0435441769659519,0.00030517578125,0.4069871369519088
0.013,0.0435402989387512,0.0006103515625,0.40254851938136177
0.0134999999999999,0.0435349568724632,0.001220703125,0.39674267828934595
0.014,0.0435281656682491,0.0006103515625,0.3898271352880139
0.0144999999999999,0.0435204058885574,0.0,0.3826979976996775
0.015,0.0435116924345493,0.00030517578125,0.37561023447523
0.0154999999999999,0.0435022711753845,0.0006103515625,0.36911280115924605
0.016,0.0434927977621555,0.00030517578125,0.364010414273567
0.0164999999999999,0.0434828959405422,0.00091552734375,0.3596834772663405
0.017,0.043472334742546,0.00030517578125,0.3557095500925394
0.0174999999999999,0.0434619858860969,0.0006103515625,0.3528486160044433
0.018,0.0434514544904232,0.0006103515625,0.3502527820225133
0.0184999999999999,0.0434409752488136,0.00030517578125,0.3480145844572585
0.019,0.0434303320944309,0.0,0.34575970740285483
0.0194999999999999,0.0434202030301094,0.00030517578125,0.3441273322686803
0.02,0.0434093214571476,0.00030517578125,0.3416540938463451
0.0204999999999999,0.0433989986777305,0.00030517578125,0.3399267555164483
0.021,0.0433886758983135,0.00030517578125,0.33810532959647627
0.0214999999999999,0.0433785878121852,0.00030517578125,0.336466059398571
0.022,0.043368000537157,0.00030517578125,0.334248035848546
0.0224999999999999,0.0433577932417392,0.0006103515625,0.332514529146127
0.023,0.0433476567268371,0.00030517578125,0.3307805357902466
0.0234999999999999,0.043337520211935,0.0,0.3289909569020804
0.024,0.0433273129165172,0.0006103515625,0.3271076811319835
0.0244999999999999,0.0433172322809696,0.0006103515625,0.3253517095974624
0.025,0.0433073379099369,0.001220703125,0.32373753778803566
0.0254999999999999,0.043296817690134,0.00030517578125,0.32145938327839413
0.026,0.043286956846714,0.0006103515625,0.3199779391238576
0.0264999999999999,0.0432767756283283,0.00030517578125,0.31806061636531086
0.027,0.0432668514549732,0.0006103515625,0.3164269005348566
0.0274999999999999,0.0432561859488487,0.0,0.31404347467448507
0.028,0.0432462990283966,0.0,0.3126067697393725
0.0284999999999999,0.0432361289858818,0.00030517578125,0.31075843352848037
0.029,0.0432261452078819,0.00030517578125,0.30910450673328305
0.0294999999999999,0.0432158075273036,0.00030517578125,0.3070767235882092
0.03,0.0432057864964008,0.00091552734375,0.3054355635651163
0.0304999999999999,0.0431957468390464,0.0006103515625,0.30372456525865954
0.031,0.0431855618953704,-0.00030517578125,0.30185987151216676
0.0314999999999999,0.0431753620505332,0.0,0.3000188763033666
0.032,0.0431654006242752,0.0006103515625,0.2984257800088496
0.0324999999999999,0.0431551858782768,0.0006103515625,0.2965439854928227
0.033,0.0431450940668582,0.0006103515625,0.29482546230852297
0.0334999999999999,0.0431350693106651,0.0006103515625,0.29315720980979093
0.034,0.0431249812245368,0.00030517578125,0.29140747434356007
0.0344999999999999,0.0431147664785385,0.00030517578125,0.28954782694617415
0.035,0.0431050807237625,0.0006103515625,0.2882163898109793
0.0354999999999999,0.043095126748085,0.0006103515625,0.286513778279727
0.036,0.0430847592651844,0.0006103515625,0.2844439194840327
0.0364999999999999,0.0430750213563442,0.00091552734375,0.28307535978327536
0.037,0.0430644787847995,0.0006103515625,0.2808679286356031
0.0374999999999999,0.0430546216666698,0.0006103515625,0.2794523199394975
0.038,0.0430445484817028,0.00030517578125,0.2777423266559567
0.0384999999999999,0.0430341698229312,0.0006103515625,0.2757766130764145
0.039,0.0430239401757717,0.0006103515625,0.2740428305479528
0.0394999999999999,0.0430141389369964,0.00030517578125,0.27269465283946603
0.04,0.0430041961371898,0.0006103515625,0.27110562802963734
0.0404999999999999,0.0429939925670623,0.00030517578125,0.26926587190526347
0.041,0.0429841056466102,0.0006103515625,0.2677711046038794
0.0414999999999999,0.0429738499224185,0.00030517578125,0.26590288524225425
0.042,0.0429636687040329,0.00091552734375,0.26417794083572377
0.0424999999999999,0.0429535247385501,-0.00030517578125,0.26250475291329517
0.043,0.0429438091814518,0.001220703125,0.2612150197179355
0.0434999999999999,0.0429335087537765,0.0,0.259308173865604
0.044,0.0429231859743595,0.00152587890625,0.257479918718589
0.0444999999999999,0.0429134033620357,0.00091552734375,0.25618053558084714
0.045,0.0429032817482948,0.00030517578125,0.25447850736758215
0.0454999999999999,0.042893286794424,0.0,0.2529229049724346
0.046,0.0428828857839107,0.00091552734375,0.2510019142004106
0.0464999999999999,0.0428730547428131,0.00091552734375,0.2496730734807474
0.047,0.0428628027439117,0.0,0.2478923518742484
0.0474999999999999,0.0428529605269432,0.0006103515625,0.246525232993231
0.048,0.0428426936268806,0.00030517578125,0.2447238205666863
0.0484999999999999,0.0428327322006225,0.0006103515625,0.24325856158618892
0.049,0.042822279036045,0.00030517578125,0.24133949444553768
0.0494999999999999,0.0428123474121093,0.0,0.23997014459202806
0.05,0.0428021401166915,0.0006103515625,0.23830016345758237
0.0504999999999999,0.0427916869521141,0.00030517578125,0.2364566391039735
0.051,0.042781762778759,0.00030517578125,0.23514467068669456
0.0514999999999999,0.0427717044949531,-0.00030517578125,0.2336341407170813
0.052,0.042761918157339,0.0006103515625,0.23233853190192852
0.0524999999999999,0.0427515432238578,0.0006103515625,0.23047921711797498
0.053,0.0427415966987609,0.0006103515625,0.2290805223968816
0.0534999999999999,0.0427315942943096,0.00030517578125,0.22759312833925757
0.054,0.0427214913070201,0.00030517578125,0.2260121783632305
0.0544999999999999,0.0427112691104412,0.00091552734375,0.224352751820418
0.055,0.0427013374865055,0.0006103515625,0.22297756516006415
0.0554999999999999,0.0426913127303123,0.00030517578125,0.22148625060245486
0.056,0.0426810793578624,0.0006103515625,0.21982155019807592
0.0564999999999999,0.0426710732281208,0.00030517578125,0.21839224569542556
0.057,0.0426609925925731,0.00030517578125,0.21688204301512454
0.0574999999999999,0.0426509454846382,0.00030517578125,0.21540735403391226
0.058,0.0426407605409622,0.00030517578125,0.2138187764686118
0.0584999999999999,0.0426306165754795,0.00091552734375,0.2122936896132585
0.059,0.0426207706332206,0.00030517578125,0.21102335660210386
0.0595,0.0426105223596096,0.00030517578125,0.20937256862377251
0.06,0.0426005311310291,0.0006103515625,0.2079849643277872
0.0605,0.0425901561975479,0.0006103515625,0.20626960068573744
0.061,0.0425802282989025,0.00030517578125,0.20498715675812168
0.0615,0.0425701402127742,0.0006103515625,0.20352446176592176
0.062,0.0425603203475475,-0.00030517578125,0.20228056491939894
0.0625,0.04255011677742,0.0006103515625,0.2006798529367849
0.0629999999999999,0.0425402112305164,0.00030517578125,0.1993655020171783
0.0635,0.0425299368798732,0.00030517578125,0.19773262188432805
0.0639999999999999,0.0425197966396808,0.0006103515625,0.19626694633960295
0.0645,0.0425096079707145,0.00030517578125,0.1947722997414648
0.0649999999999999,0.0424999110400676,0.00030517578125,0.19368334633107454
0.0655,0.0424897521734237,0.0006103515625,0.19215043330290227
0.0659999999999999,0.042479507625103,0.00030517578125,0.19059089908045831
0.0665,0.0424694120883941,0.0006103515625,0.1891918844356214
0.0669999999999999,0.042459238320589,0.00030517578125,0.1877339760060865
0.0675,0.0424492172896862,0.0006103515625,0.18641208474169213
0.0679999999999999,0.0424390360713005,0.0,0.1849502358262303
0.0685,0.0424292087554931,0.0006103515625,0.18378257536419232
0.0689999999999999,0.0424188375473022,-0.00030517578125,0.182145458474511
0.0695,0.0424090847373008,0.0006103515625,0.18105135099894235
0.0699999999999999,0.0423988290131092,0.00091552734375,0.17950442562758337
0.0705,0.0423885062336921,0.0,0.17796099443457336
0.0709999999999999,0.0423784665763378,0.00030517578125,0.17668151728519393
0.0715,0.0423684231936931,0.00030517578125,0.17537847723193747
0.0719999999999999,0.0423583947122097,-0.00030517578125,0.17407595520008354
0.0725,0.0423482358455657,0.0,0.17266813842012105
0.0729999999999999,0.0423382334411144,0.0006103515625,0.17139743016341824
0.0735,0.0423281677067279,0.00091552734375,0.1700665690959459
0.0739999999999999,0.0423180237412452,0.0006103515625,0.1686818234818297
0.0745,0.0423079654574394,0.00030517578125,0.16737897322147335
0.0749999999999999,0.042297825217247,0.00030517578125,0.16601468783592946
0.0755,0.0422880165278911,0.0006103515625,0.16490912472554808
0.0759999999999999,0.0422776713967323,0.00091552734375,0.16336421085451125
0.0765,0.0422677733004093,0.00030517578125,0.1622095697877205
0.0769999999999999,0.0422574616968631,0.0006103515625,0.16072203513454258
0.0775,0.0422475114464759,0.0006103515625,0.1595461703885676
0.0779999999999999,0.0422374047338962,0.0006103515625,0.15823176557858243
0.0785,0.0422273240983486,0.0006103515625,0.15694775760494378
0.0789999999999999,0.0422171801328659,0.0,0.15562307779075746
0.0795,0.0422071479260921,0.0006103515625,0.15439248779881026
0.0799999999999999,0.042197149246931,0.0006103515625,0.15317917481984422
0.0805,0.0421869866549968,0.0006103515625,0.15184267008046362
0.0809999999999999,0.0421768352389335,0.00030517578125,0.15053690679740533
0.0815,0.042166780680418,-0.00030517578125,0.14931423635027413
0.0819999999999999,0.0421566627919673,0.0,0.1480438389688794
0.0825,0.0421465002000331,0.00030517578125,0.1467511920930216
0.0829999999999999,0.0421365462243557,0.0006103515625,0.1456190669108658
0.0835,0.0421264804899692,0.0006103515625,0.14438902678937535
0.0839999999999999,0.0421163663268089,0.0006103515625,0.14312978489401487
0.0845,0.0421061366796493,0.0,0.14180320569374474
0.0849999999999999,0.0420961566269397,0.0,0.14067596734347815
0.0855,0.042086012661457,0.00030517578125,0.13942061113668686
0.0859999999999999,0.0420758165419101,0.0,0.13814426559701404
0.0865,0.0420658253133297,0.0006103515625,0.13702467916276517
0.0869999999999999,0.0420558415353298,0.0006103515625,0.13589463597865742
0.0875,0.0420455336570739,0.00091552734375,0.13453680361399586
0.0879999999999999,0.0420355945825576,0.00030517578125,0.13346811225580618
0.0885,0.0420253127813339,0.0006103515625,0.13214796482132135
0.0889999999999999,0.0420153625309467,0.00030517578125,0.13108341220228256
0.0895,0.0420047678053379,0.0006103515625,0.1295716406549085
0.0899999999999999,0.0419949479401111,0.00030517578125,0.12864968344482444
0.0905,0.0419849343597888,0.0006103515625,0.12754732213498077
0.0909999999999999,0.0419749468564987,0.0006103515625,0.12645280188866725
0.0915,0.0419648997485637,0.00030517578125,0.12531150939660401
0.0919999999999999,0.0419547297060489,0.0006103515625,0.12409343352610094
0.0925,0.0419445931911468,0.0,0.1229183348910615
0.0929999999999999,0.0419343374669551,0.0,0.12167848484060613
0.0935,0.0419245064258575,0.0,0.12073473877942892
0.0939999999999999,0.0419145561754703,0.0006103515625,0.11967840447299094
0.0945,0.0419042147696018,0.0006103515625,0.11836499097723452
0.0949999999999999,0.0418942831456661,0.00030517578125,0.11735720414243306
0.0955,0.0418842881917953,0.00030517578125,0.11629119438974983
0.0959999999999999,0.0418741293251514,0.00030517578125,0.11511800043815508
0.0965,0.0418643504381179,0.0,0.11420093425231977
0.0969999999999999,0.0418542772531509,0.0006103515625,0.11306759544409783
0.0975,0.0418442077934742,0.0,0.11195224181073403
0.0979999999999999,0.0418339148163795,0.0,0.11071005804970367
0.0985,0.0418239533901214,0.00030517578125,0.10970809953761795
0.0989999999999999,0.0418138615787029,0.00030517578125,0.10861492353298308
0.0995,0.0418035462498664,0.00030517578125,0.10739450202338534
0.0999999999999999,0.0417935922741889,0.0006103515625,0.10642823199420122
0.1005,0.0417838580906391,0.0006103515625,0.10557962221553269
0.1009999999999999,0.0417734310030937,0.0,0.10427709437522686
0.1015,0.0417636446654796,0.00030517578125,0.10341123399420105
0.1019999999999999,0.0417537167668342,0.0,0.1024292663609604
0.1025,0.0417432785034179,0.0,0.10113962920650496
0.1029999999999999,0.0417332388460636,0.0006103515625,0.1001401767280271
0.1035,0.0417232066392898,0.0,0.09914197524304874
0.1039999999999999,0.0417131334543228,0.0006103515625,0.0981183441591764
0.1045,0.0417027659714221,0.00030517578125,0.09692806979574344
0.1049999999999999,0.0416928753256797,0.0,0.09605142213175503
0.1055,0.0416829138994216,0.0006103515625,0.09511090342691367
0.1059999999999999,0.0416730120778083,0.0,0.09419638422987339
0.1065,0.0416629947721958,0.00030517578125,0.0932061799240724
0.1069999999999999,0.0416525900363922,0.0,0.09199979861985538
0.1075,0.0416422672569751,0.0006103515625,0.09088449880539923
0.1079999999999999,0.041632205247879,0.00030517578125,0.08994369085025666
0.1085,0.0416224934160709,0.00030517578125,0.08919429132787797
0.1089999999999999,0.0416122563183307,0.00030517578125,0.08811404169350553
0.1095,0.0416021011769771,0.00091552734375,0.08710318483923558
0.1099999999999999,0.0415923446416854,0.00091552734375,0.08632484146021067
0.1105,0.0415819324553012,0.00030517578125,0.08515841868918331
0.1109999999999999,0.0415720343589782,0.0,0.08431587820766326
0.1115,0.0415616817772388,0.00030517578125,0.08321128341641983
0.1119999999999999,0.0415516756474971,0.0006103515625,0.08232684009692126
0.1125,0.0415416434407234,0.0006103515625,0.0814221614330971
0.1129999999999999,0.0415315106511116,0.0,0.08046238143533269
0.1135,0.0415215566754341,0.0,0.07960711682748486
0.1139999999999999,0.0415114387869834,-0.00030517578125,0.07865711068958499
0.1145,0.0415014587342739,0.0,0.07778946261838644
0.1149999999999999,0.0414913706481456,0.0006103515625,0.07686156042780354
0.1155,0.0414812304079532,0.00030517578125,0.07591434186358996
0.1159999999999999,0.0414711982011795,0.0006103515625,0.07503500500976398
0.1165,0.0414611250162124,0.0006103515625,0.07413518717904957
0.1169999999999999,0.0414512045681476,0.0006103515625,0.07331919846273638
0.1175,0.0414408035576343,0.0006103515625,0.072250763756083
0.118,0.0414309240877628,0.00091552734375,0.07148225656416562
0.1185,0.0414208061993122,0.0006103515625,0.07057919396090771
0.119,0.0414108708500862,0.00030517578125,0.06977704820463215
0.1195,0.0414004102349281,-0.00030517578125,0.06870650297283486
0.12,0.0413907095789909,0.00030517578125,0.06805089774957242
0.1205,0.041380375623703,0.00030517578125,0.06705562561762918
0.121,0.0413701422512531,0.0006103515625,0.06613727750525551
0.1215,0.0413600876927375,0.00091552734375,0.06532036239858546
0.122,0.0413501150906086,0.00091552734375,0.0645428375781484
0.1225,0.0413399152457714,0.0006103515625,0.06365117314458725
0.123,0.0413297452032566,0.0006103515625,0.06278736375062094
0.1235,0.0413197204470634,0.0006103515625,0.06200185341616447
0.124,0.041309680789709,0.0006103515625,0.06120758875281683
0.1245,0.0412996560335159,0.00091552734375,0.060421906202977625
0.125,0.0412892028689384,0.00030517578125,0.05943673961668187
0.1254999999999999,0.0412795767188072,0.00030517578125,0.05886581850884846
0.126,0.0412692129611969,0.00091552734375,0.05792396732753261
0.1264999999999999,0.0412590205669403,0.00030517578125,0.057086183068354064
0.127,0.0412493385374546,0.00030517578125,0.05649160672175918
0.1274999999999999,0.0412390939891338,0.0006103515625,0.05562019408591547
0.128,0.0412285327911376,0.00030517578125,0.054624940334234255
0.1284999999999999,0.0412187539041042,0.0006103515625,0.054013363794296713
0.129,0.0412087477743625,0.00091552734375,0.05328167974929488
0.1294999999999999,0.0411984771490097,0.0006103515625,0.05243365226127501
0.13,0.0411883294582366,0.0006103515625,0.05165639574225896
0.1304999999999999,0.0411782376468181,0.0006103515625,0.05091063310961486
0.131,0.0411680303514003,0.0006103515625,0.050118608150889525
0.1314999999999999,0.0411580987274646,0.0006103515625,0.04945432861724515
0.132,0.0411483645439147,0.0006103515625,0.04886755815238859
0.1324999999999999,0.041138157248497,0.0006103515625,0.0480655837207863
0.133,0.0411280058324337,0.0006103515625,0.04730192480589135
0.1334999999999999,0.0411180518567562,0.00091552734375,0.046630058348247495
0.134,0.0411080457270145,0.00030517578125,0.04593467170755784
0.1344999999999999,0.0410978198051452,0.00030517578125,0.04515154555924074
0.135,0.0410877093672752,0.0,0.04443021443638146
0.1354999999999999,0.0410777106881141,0.0006103515625,0.0437606666469627
0.136,0.0410676747560501,0.00030517578125,0.04307679101490754
0.1364999999999999,0.0410577245056629,-0.00030517578125,0.04243044894867162
0.137,0.041047628968954,0.0,0.04172577802422185
0.1374999999999999,0.0410374924540519,0.0,0.041013025321317606
0.138,0.0410271845757961,0.0006103515625,0.04024285924318416
0.1384999999999999,0.0410171300172805,0.0,0.03958670430024862
0.139,0.0410074293613433,0.0006103515625,0.03906905429919319
0.1394999999999999,0.0409971326589584,0.0006103515625,0.038311274095252194
0.14,0.0409872643649578,0.0,0.03773254042423847
0.1404999999999999,0.0409768968820571,0.00030517578125,0.03696285488128481
0.141,0.0409668385982513,0.0006103515625,0.03632787251117584
0.1414999999999999,0.040956724435091,0.0006103515625,0.0356755037151035
0.142,0.0409469753503799,0.00030517578125,0.03516270147938076
0.1424999999999999,0.0409364439547061,0.00030517578125,0.03435769868936769
0.143,0.0409264788031578,0.00030517578125,0.03378198496470851
0.1434999999999999,0.040916584432125,0.00030517578125,0.03323035563190773
0.144,0.0409064143896102,0.00030517578125,0.03257853996150174
0.1444999999999999,0.0408961288630962,0.0006103515625,0.03189621293733153
0.145,0.0408860109746456,0.0006103515625,0.031285525683752285
0.1454999999999999,0.04087620601058,0.0006103515625,0.030787582877704875
0.146,0.0408659875392913,0.0006103515625,0.03014252617965663
0.1464999999999999,0.0408559367060661,0.00091552734375,0.02956473219014321
0.147,0.0408459939062595,0.00030517578125,0.029026775875738563
0.1474999999999999,0.0408355630934238,0.0,0.0283279151637012
0.148,0.0408256538212299,0.0006103515625,0.027818188951034127
0.1484999999999999,0.0408153086900711,0.00030517578125,0.027165335032187272
0.149,0.0408055447041988,0.00030517578125,0.026713060317937586
0.1494999999999999,0.0407951101660728,0.00030517578125,0.026041144240751553
0.15,0.0407853387296199,0.0006103515625,0.0255949744642031
0.1504999999999999,0.0407751314342021,0.0,0.025007211831996383
0.151,0.0407649427652359,0.00030517578125,0.02443483442120674
0.1514999999999999,0.0407549515366554,0.0006103515625,0.023930886265939543
