time [s],Lmtc [m],STIM [ ],Fsee [N]
0.0,0.043548684567213,0.00091552734375,0.4122949336916777
0.0004999999999999,0.0435488857328891,0.00030517578125,0.4125549015300709
0.001,0.043548434972763,0.0,0.41196633520921877
0.0014999999999999,0.0435486957430839,0.0006103515625,0.41232191633776105
0.002,0.0435484983026981,0.0,0.4120690888311316
0.0024999999999999,0.0435488894581794,0.00030517578125,0.4125845173553374
0.003,0.0435483492910862,0.00030517578125,0.4118799993621881
0.0034999999999999,0.0435486882925033,0.0006103515625,0.41234092754057183
0.004,0.0435484834015369,0.00030517578125,0.41207684937273287
0.0044999999999999,0.0435486882925033,0.0006103515625,0.4123529684102647
0.005,0.0435486584901809,0.00030517578125,0.41231178877557867
0.0054999999999999,0.0435487702488899,0.00030517578125,0.41245539392861663
0.006,0.0435485877096653,0.0006103515625,0.41221399841706896
0.0064999999999999,0.043548434972763,0.0006103515625,0.4120261437143191
0.007,0.0435481518507003,0.0006103515625,0.41168638774887845
0.0074999999999999,0.0435472168028354,0.00091552734375,0.41055040440887375
0.008,0.0435452684760093,0.00030517578125,0.40822162290992214
0.0084999999999999,0.0435421206057071,0.0,0.4045878226344928
0.009,0.0435380712151527,0.00030517578125,0.40016171303837755
0.0094999999999999,0.0435327626764774,0.00030517578125,0.3946464374384721
0.01,0.0435266755521297,0.00030517578125,0.38882854653853854
0.0104999999999999,0.0435197055339813,0.0,0.3827513610637499
0.011,0.0435122177004814,0.0006103515625,0.37701665714085614
0.0114999999999999,0.0435045287013053,0.0006103515625,0.372075202221077
0.012,0.0434965975582599,0.0,0.36781837772919285
0.0124999999999999,0.0434880964457988,0.0,0.36381214246453
0.013,0.0434799790382385,0.00030517578125,0.3610432956826946
0.0134999999999999,0.0434715785086154,0.00091552734375,0.358442425053131
0.014,0.043463259935379,0.0006103515625,0.3563248645644829
0.0144999999999999,0.0434547401964664,0.00030517578125,0.35422693834571745
0.015,0.0434463769197464,-0.00030517578125,0.35249423803957675
0.0154999999999999,0.0434383861720562,0.00030517578125,0.3512074183659418
0.016,0.0434297956526279,0.00030517578125,0.34923388425484797
0.0164999999999999,0.0434211231768131,0.0,0.3473266301876344
0.017,0.0434133149683475,0.0006103515625,0.3464088172210243
0.0174999999999999,0.0434048064053058,0.0006103515625,0.344577032030596
0.018,0.043396707624197,0.00030517578125,0.343261715057576
0.0184999999999999,0.0433884486556053,0.00030517578125,0.34170957185143447
0.019,0.043380606919527,0.0,0.34058857055984326
0.0194999999999999,0.0433721095323562,0.00030517578125,0.3386883780610604
0.02,0.0433642715215683,0.0006103515625,0.3375834044655376
0.0204999999999999,0.0433564856648445,0.0006103515625,0.3364058139358204
0.021,0.0433481112122535,-0.00030517578125,0.33454808566124267
0.0214999999999999,0.0433399714529514,0.0006103515625,0.3330542222755257
0.022,0.0433318093419075,0.0006103515625,0.3315455030094655
0.0224999999999999,0.0433238074183464,0.0006103515625,0.3302076896573605
0.023,0.0433156266808509,0.0006103515625,0.32865201039427283
0.0234999999999999,0.0433077588677406,0.00030517578125,0.3274344009286988
0.024,0.0432997830212116,0.0006103515625,0.3260355918563899
0.0244999999999999,0.0432915575802326,0.0006103515625,0.32438218742418795
0.025,0.0432835109531879,0.00030517578125,0.3229743455081983
0.0254999999999999,0.0432756021618843,-0.00030517578125,0.321694759742172
0.026,0.0432671606540679,0.0006103515625,0.31984439401069065
0.0264999999999999,0.0432590991258621,0.00030517578125,0.3184913443976721
0.027,0.0432512871921062,0.0006103515625,0.3173540868626004
0.0274999999999999,0.0432431474328041,0.0006103515625,0.31581148237372075
0.028,0.043234933167696,0.00091552734375,0.3142362134669156
0.0284999999999999,0.0432270020246505,0.00030517578125,0.3129819430020044
0.029,0.0432189181447029,0.0006103515625,0.31152828150811773
0.0294999999999999,0.0432108528912067,0.0006103515625,0.31011060994044176
0.03,0.0432025119662284,0.0006103515625,0.30842928973617584
0.0304999999999999,0.0431948788464069,0.001220703125,0.30751353102434714
0.031,0.0431865155696868,0.00091552734375,0.3057427198077061
0.0314999999999999,0.0431786216795444,0.0006103515625,0.30453602855177997
0.032,0.0431707650423049,0.00030517578125,0.3033077316652072
0.0324999999999999,0.0431623682379722,0.00030517578125,0.3015146845736073
0.033,0.0431546792387962,0.0,0.30052540622818574
0.0334999999999999,0.0431461445987224,0.00091552734375,0.2986086034012577
0.034,0.0431383922696113,0.0006103515625,0.2976016514930436
0.0344999999999999,0.0431302711367607,0.0,0.29613003184705383
0.035,0.0431222468614578,0.0006103515625,0.29478111216222375
0.0354999999999999,0.0431140847504138,0.0006103515625,0.29329422794990645
0.036,0.0431061461567878,0.0006103515625,0.2920550380551734
0.0364999999999999,0.0430977754294872,0.00030517578125,0.29036829175437856
0.037,0.0430900081992149,0.00091552734375,0.28934763848639145
0.0374999999999999,0.0430819578468799,0.00030517578125,0.2879616561495436
0.038,0.043073795735836,0.0006103515625,0.2864812880261883
0.0384999999999999,0.0430659018456935,0.0,0.28528952817921893
0.039,0.0430578738451004,0.001220703125,0.28392715643139926
0.0394999999999999,0.0430495031177997,0.0006103515625,0.28224912082524833
0.04,0.0430418364703655,0.0006103515625,0.28132748545979236
0.0404999999999999,0.0430336408317089,0.0006103515625,0.27979430277395145
0.041,0.0430256053805351,0.00030517578125,0.27846982419932553
0.0414999999999999,0.0430175736546516,0.0,0.27714453237671893
0.042,0.0430097319185733,0.00030517578125,0.2759961594905988
0.0424999999999999,0.0430017709732055,0.00030517578125,0.2746919714007844
0.043,0.042993675917387,0.00030517578125,0.2732625369521307
0.0434999999999999,0.0429853349924087,0.0006103515625,0.2716420061840008
0.044,0.0429772287607193,0.00030517578125,0.27032405150863303
0.0444999999999999,0.0429692678153514,0.0,0.2691370442294246
0.045,0.0429611541330814,0.0006103515625,0.26777419484869847
0.0454999999999999,0.0429532155394554,0.00030517578125,0.2665875412417341
0.046,0.0429451018571853,0.0,0.2652086113469202
0.0464999999999999,0.0429370068013668,0.0,0.26387015215089715
0.047,0.0429289042949676,-0.00030517578125,0.2625365867749689
0.0474999999999999,0.0429209396243095,0.0,0.26133918811295237
0.048,0.0429127812385559,0.00030517578125,0.25994055378444986
0.0484999999999999,0.0429046750068664,0.00030517578125,0.2586194354410276
0.049,0.0428966507315635,0.0006103515625,0.25738208822195185
0.0494999999999999,0.0428886525332927,0.00030517578125,0.25615607671226115
0.05,0.0428805984556674,0.0006103515625,0.2548664005253731
0.0504999999999999,0.0428726486861705,0.00030517578125,0.2536770264348262
0.051,0.0428644530475139,0.0006103515625,0.25224649423716916
0.0514999999999999,0.0428566075861454,0.0,0.251176733270178
0.052,0.0428481251001358,0.00030517578125,0.2494865850380228
0.0524999999999999,0.0428401976823806,0.00030517578125,0.24840445411661793
0.053,0.0428318977355957,0.00091552734375,0.24694201995771967
0.0534999999999999,0.0428239852190017,0.00091552734375,0.2458762064389007
0.054,0.0428157821297645,0.0,0.24450204517794819
0.0544999999999999,0.0428077951073646,0.00030517578125,0.24335054871290232
0.055,0.0427997261285781,0.0006103515625,0.24210133825088503
0.0554999999999999,0.042791586369276,0.0006103515625,0.24079072451089534
0.056,0.0427837036550045,0.00030517578125,0.2397248042885191
0.0564999999999999,0.0427753776311874,0.0,0.23822772718539215
0.057,0.0427674129605293,0.0006103515625,0.23711574019862497
0.0574999999999999,0.042759571224451,0.0006103515625,0.23608191927569225
0.058,0.0427512191236019,0.00030517578125,0.23455497659847954
0.0584999999999999,0.0427432879805564,0.0,0.2334705958432786
0.059,0.0427352860569953,0.0006103515625,0.23229035160098283
0.0595,0.0427271761000156,0.0006103515625,0.23101051896566124
0.06,0.0427190214395523,0.0006103515625,0.22971002898262974
0.0605,0.0427111946046352,0.0006103515625,0.22871376117191178
0.061,0.0427031628787517,0.00030517578125,0.22748952224666735
0.0615,0.0426948443055152,0.00030517578125,0.22602668757095193
0.062,0.0426869839429855,0.0,0.2250232389888637
0.0625,0.0426789633929729,0.00030517578125,0.22383564792611613
0.0629999999999999,0.0426709130406379,0.00030517578125,0.2226229499054508
0.0635,0.042662888765335,0.0006103515625,0.22143835324746333
0.0639999999999999,0.0426550321280956,0.0006103515625,0.2203977331569
0.0645,0.0426470339298248,0.0006103515625,0.21920840519195478
0.0649999999999999,0.0426386855542659,0.0,0.2177278634611395
0.0655,0.042630661278963,0.00030517578125,0.21659346235715018
0.0659999999999999,0.0426226966083049,0.00091552734375,0.2154999008444685
0.0665,0.0426144376397132,0.00091552734375,0.21414039709439686
0.0669999999999999,0.0426066815853118,0.00030517578125,0.2132496466569005
0.0675,0.0425987392663955,0.0006103515625,0.21214105993409038
0.0679999999999999,0.0425905250012874,0.0006103515625,0.21079552794691134
0.0685,0.0425823517143726,0.00030517578125,0.2095301804830534
0.0689999999999999,0.0425743423402309,0.00030517578125,0.20842801581033765
0.0695,0.0425663031637668,0.00030517578125,0.20728878680933013
0.0699999999999999,0.0425583906471729,0.0006103515625,0.2062532698073619
0.0705,0.0425501763820648,0.00030517578125,0.20494596842823065
0.0709999999999999,0.0425421372056007,0.00091552734375,0.20382297109467581
0.0715,0.0425339676439762,0.0006103515625,0.20258829832024527
0.0719999999999999,0.0425261408090591,0.0006103515625,0.20165817391705762
0.0725,0.0425179302692413,0.0006103515625,0.2003698967122563
0.0729999999999999,0.0425099283456802,0.0,0.19929000846163386
0.0735,0.0425019301474094,0.00030517578125,0.19820339879873167
0.0739999999999999,0.0424938611686229,0.0006103515625,0.1970525459862532
0.0745,0.042485736310482,0.00030517578125,0.19586519044216696
0.0749999999999999,0.0424777157604694,0.00030517578125,0.1947794725900931
0.0755,0.0424696430563926,0.0,0.19364682061378632
0.0759999999999999,0.042461559176445,0.0006103515625,0.19251149081467864
0.0765,0.042453609406948,0.00091552734375,0.19149260188337092
0.0769999999999999,0.0424452610313892,-0.00030517578125,0.19013708359074372
0.0775,0.0424373894929885,0.00030517578125,0.1892181608982664
0.0779999999999999,0.0424292720854282,0.00091552734375,0.18806423056947727
0.0785,0.0424215085804462,0.0006103515625,0.18720692650274207
0.0789999999999999,0.0424132198095321,0.00030517578125,0.18588376232624737
0.0795,0.0424051843583583,-0.0006103515625,0.18481546473263624
0.0799999999999999,0.042396891862154,0.0,0.18354212321809002
0.0805,0.0423888973891735,0.00030517578125,0.18254332761514275
0.0809999999999999,0.0423809476196765,0.00030517578125,0.1815624844855962
0.0815,0.0423731133341789,0.00030517578125,0.18065562121163237
0.0819999999999999,0.0423646345734596,0.0006103515625,0.17921223116718624
0.0825,0.042356714606285,0.0,0.17828282929538516
0.0829999999999999,0.0423487983644008,0.00030517578125,0.1773277369161537
0.0835,0.0423406586050987,0.0006103515625,0.17617990548356152
0.0839999999999999,0.0423325709998607,0.0006103515625,0.17509310387708796
0.0845,0.0423245802521705,0.00030517578125,0.1740893208279425
0.0849999999999999,0.0423163548111915,0.0006103515625,0.17289635745523224
0.0855,0.0423083677887916,0.0,0.17191586364528572
0.0859999999999999,0.0423004478216171,0.0006103515625,0.17097396326525655
0.0865,0.0422924049198627,0.00030517578125,0.16991995473832902
0.0869999999999999,0.0422843545675277,0.00091552734375,0.1688654834236585
0.0875,0.0422761887311935,0.0006103515625,0.16772795058944592
0.0879999999999999,0.0422684252262115,0.0,0.1669182525657267
0.0885,0.042259968817234,0.00030517578125,0.16554477024390613
0.0889999999999999,0.0422519035637378,-0.00030517578125,0.1645384331276878
0.0895,0.0422441624104976,0.00091552734375,0.16377114036109985
0.0899999999999999,0.0422360114753246,0.00030517578125,0.1626473377392782
0.0905,0.042227853089571,0.0006103515625,0.1615420212131278
0.0909999999999999,0.0422198548913002,0.0006103515625,0.16057601725048934
0.0915,0.0422117412090301,0.0,0.15951566821922028
0.0919999999999999,0.0422039404511451,0.0006103515625,0.15869926512331453
0.0925,0.0421956591308116,0.0006103515625,0.1574938952304959
0.0929999999999999,0.0421876832842826,0.00030517578125,0.15655614126661158
0.0935,0.042179275304079,0.0006103515625,0.15529012454885271
0.0939999999999999,0.042171511799097,0.00030517578125,0.15455029376029464
0.0945,0.0421635210514068,0.00091552734375,0.1535969048666097
0.0949999999999999,0.0421554259955883,0.0,0.15256282808753
0.0955,0.042147196829319,0.0,0.15144211370480823
0.0959999999999999,0.0421393923461437,0.00030517578125,0.1506573261347546
0.0965,0.0421310476958751,0.0006103515625,0.14944709104374393
0.0969999999999999,0.0421232432126998,0.00091552734375,0.14867260237931246
0.0975,0.0421149730682373,0.00030517578125,0.14752817703085158
0.0979999999999999,0.0421070009469985,0.00091552734375,0.14663231323502135
0.0985,0.0420987233519554,0.00030517578125,0.14550708365587392
0.0989999999999999,0.0420906580984592,0.00030517578125,0.14456497512950986
0.0995,0.0420827828347682,0.00030517578125,0.14375377480805027
0.0999999999999999,0.0420748405158519,0.00091552734375,0.14286936929788402
0.1005,0.0420665331184864,0.00030517578125,0.14171768841616053
0.1009999999999999,0.0420585945248603,0.0006103515625,0.14086487988340402
0.1015,0.0420505478978157,0.00091552734375,0.13992122845836524
0.1019999999999999,0.0420423187315464,0.0,0.1388519821628647
0.1025,0.0420342050492763,0.00030517578125,0.13788754985077478
0.1029999999999999,0.0420262478291988,0.00030517578125,0.13703795843584016
0.1035,0.0420181900262832,0.00091552734375,0.13610570272250216
0.1039999999999999,0.0420099720358848,0.001220703125,0.13506492374736415
0.1045,0.042002011090517,0.0006103515625,0.13422295655427535
0.1049999999999999,0.0419937819242477,0.0006103515625,0.13318353138936018
0.1055,0.0419858172535896,0.00030517578125,0.13234756564160222
0.1059999999999999,0.0419776290655136,0.0,0.1313458863058443
0.1065,0.0419697687029838,0.0006103515625,0.13058452117743866
0.1069999999999999,0.0419614091515541,0.0006103515625,0.1294599035948696
0.1075,0.0419537723064422,0.00030517578125,0.12886172796499068
0.1079999999999999,0.0419457517564296,0.0006103515625,0.12795287837943198
0.1085,0.0419380478560924,0.00030517578125,0.12726319468135044
0.1089999999999999,0.0419295020401477,0.0006103515625,0.12597639244266137
0.1095,0.0419218279421329,0.00030517578125,0.12534145837237984
0.1099999999999999,0.0419135503470897,0.0006103515625,0.12426283622758474
0.1105,0.0419054701924324,0.00030517578125,0.12335139222442949
0.1109999999999999,0.0418971739709377,0.0006103515625,0.12230384082079108
0.1115,0.0418893918395042,0.00091552734375,0.12162337801964429
0.1119999999999999,0.0418813526630401,0.0,0.12074199845112932
0.1125,0.0418731942772865,0.00030517578125,0.11978535489835203
0.1129999999999999,0.0418654717504978,0.0,0.11912953746669787
0.1135,0.0418571941554546,0.0006103515625,0.11808034809320798
0.1139999999999999,0.041849210858345,0.00030517578125,0.11725532171936394
0.1145,0.0418413467705249,0.0006103515625,0.11650349765055616
0.1149999999999999,0.0418331287801265,0.00030517578125,0.11550846873487208
0.1155,0.0418251603841781,0.00030517578125,0.11469982607549428
0.1159999999999999,0.041816808283329,0.00030517578125,0.11364091895332867
0.1165,0.0418090559542179,0.0006103515625,0.11299920628817968
0.1169999999999999,0.0418010056018829,0.0006103515625,0.11213664743730942
0.1175,0.0417929291725158,0.0006103515625,0.11126371501379449
0.118,0.04178486764431,0.0006103515625,0.11040793818713598
0.1185,0.0417768023908138,0.00030517578125,0.10955519208292494
0.119,0.0417687334120273,-0.00030517578125,0.10870544223847742
0.1195,0.0417604073882103,0.00030517578125,0.10769955609437197
0.12,0.0417527854442596,0.00030517578125,0.10716187733935637
0.1205,0.0417445302009582,0.0006103515625,0.10618879011692843
0.121,0.0417366623878479,0.00030517578125,0.10548163357959751
0.1215,0.04172845184803,0.0006103515625,0.10454743362768534
0.122,0.0417208820581436,0.0006103515625,0.10402765652629088
0.1225,0.0417124480009079,0.00030517578125,0.10293795471070323
0.123,0.0417045131325721,0.00030517578125,0.10219910830205184
0.1235,0.0416962802410125,0.00091552734375,0.10127224047797
0.124,0.0416880287230014,0.0006103515625,0.10035587596128993
0.1245,0.0416801869869232,0.0006103515625,0.09970551814567744
0.125,0.0416719689965248,0.0006103515625,0.09880907233031468
0.1254999999999999,0.0416640304028987,0.0006103515625,0.09809691995127613
0.126,0.0416560806334018,0.0,0.09736843609504982
0.1264999999999999,0.0416481718420982,0.0006103515625,0.0966589241040543
0.127,0.0416398718953132,0.0,0.09570971572524568
0.1274999999999999,0.0416318289935588,0.0006103515625,0.09493906471347005
0.128,0.0416238903999328,0.0,0.09423095165251962
0.1284999999999999,0.0416155792772769,0.0006103515625,0.09329825531184072
0.129,0.0416075848042964,0.0,0.09257628489818522
0.1294999999999999,0.0415996573865413,0.0006103515625,0.09188823285654064
0.13,0.0415916368365287,0.00091552734375,0.09113753654271707
0.1304999999999999,0.0415833219885826,0.0006103515625,0.09021873725419619
0.131,0.0415753945708274,0.00030517578125,0.08954784865983337
0.1314999999999999,0.0415673144161701,0.00030517578125,0.0887809522710374
0.132,0.0415588356554508,0.0,0.08779217932563795
0.1324999999999999,0.0415513478219509,0.00030517578125,0.08739947475001084
0.133,0.0415432676672935,0.0006103515625,0.08662419630033788
0.1334999999999999,0.0415352284908294,0.0006103515625,0.08588020681768678
0.134,0.0415270961821079,0.00030517578125,0.0850875766284501
0.1344999999999999,0.0415192805230617,0.00030517578125,0.08448237535180263
0.135,0.0415110439062118,0.0006103515625,0.08362813961087859
0.1354999999999999,0.04150315746665,0.0006103515625,0.08298819395709632
0.136,0.041494894772768,0.0006103515625,0.08213165458872121
0.1364999999999999,0.0414869673550128,0.0006103515625,0.08147958283527584
0.137,0.0414790734648704,0.0,0.08083916786227206
0.1374999999999999,0.0414706468582153,0.00030517578125,0.07990166819558266
0.138,0.0414627343416214,0.00091552734375,0.07927621892376872
0.1384999999999999,0.0414547659456729,0.00030517578125,0.07861125136633301
0.139,0.0414467900991439,0.0006103515625,0.07793924640449613
0.1394999999999999,0.0414386279881,0.00030517578125,0.0771659554889533
0.14,0.0414307825267314,0.0006103515625,0.07657406384063359
0.1404999999999999,0.0414224900305271,0.0006103515625,0.07573455787848409
0.141,0.0414142347872257,0.00030517578125,0.07493706702133501
0.1414999999999999,0.0414064601063728,0.0006103515625,0.07440840139759144
0.142,0.0413982272148132,0.0006103515625,0.07362118136076158
0.1424999999999999,0.0413902550935745,0.00030517578125,0.07298633701586511
0.143,0.0413819998502731,0.00030517578125,0.07220099190445664
0.1434999999999999,0.0413741953670978,0.0006103515625,0.07166475166512747
0.144,0.0413660556077957,0.00030517578125,0.07094047569415966
0.1444999999999999,0.0413578636944294,0.0,0.07019896280841341
0.145,0.0413499139249324,0.0,0.06959291352277336
0.1454999999999999,0.0413419678807258,0.00030517578125,0.06898451251319698
0.146,0.0413335151970386,0.0006103515625,0.0681159454924696
0.1464999999999999,0.0413259677588939,0.0006103515625,0.0677310496703375
0.147,0.0413178727030754,0.00091552734375,0.06704017307452685
0.1474999999999999,0.041309330612421,0.0006103515625,0.06613440658132867
0.148,0.0413015633821487,0.00091552734375,0.06564788958163909
0.1484999999999999,0.041293479502201,0.0006103515625,0.06498767190344798
0.149,0.041285466402769,0.0,0.06436710702425465
0.1494999999999999,0.0412770994007587,0.0006103515625,0.06357358497737663
0.15,0.0412692986428737,0.0006103515625,0.0630776816681775
0.1504999999999999,0.0412611439824104,0.0,0.062396241294668184
0.151,0.0412531048059463,0.00030517578125,0.061779464574228546
0.1514999999999999,0.0412451922893524,0.00091552734375,0.061224622955268704
0.152,0.041237249970436,0.00030517578125,0.060650013439252595
