Time [s],Lmtc [m],STIM [ ],fGM [N],fGL [N]
0.0,0.04550226777791977,0.0006103515625,0.09317848086357117,0.07080516219139099
0.0004999999999999449,0.045502156019210815,0.0006103515625,0.0930793285369873,0.06974765658378601
0.0010000000000000009,0.04550236463546753,0.00030517578125,0.09367392212152481,0.07094050198793411
0.0014999999999999458,0.045502323657274246,0.0006103515625,0.09271589666604996,0.07083966583013535
0.0020000000000000018,0.04550223797559738,0.0006103515625,0.09346014261245728,0.07120805233716965
0.0024999999999999467,0.045502107590436935,0.00030517578125,0.0932178795337677,0.07016336172819138
0.0030000000000000027,0.04550231993198395,0.0,0.09348251670598984,0.0705585703253746
0.0034999999999999476,0.045502081513404846,0.0,0.09344939887523651,0.07050150632858276
0.0040000000000000036,0.045501958578825,0.0006103515625,0.0929049700498581,0.07079972326755524
0.0044999999999999485,0.04550231620669365,0.0,0.09306532889604568,0.07103445380926132
0.0050000000000000044,0.045501913875341415,0.0006103515625,0.09340669959783554,0.07030051201581955
0.005499999999999949,0.0455022007226944,0.0006103515625,0.09303663671016693,0.06907261162996292
0.006000000000000005,0.04550214856863022,0.0006103515625,0.09254016727209091,0.07007963955402374
0.00649999999999995,0.04550231620669365,0.0,0.09286218136548996,0.07007058709859848
0.007000000000000006,0.04550185427069664,0.0006103515625,0.09195028990507126,0.07008299231529236
0.007499999999999951,0.04550197720527649,0.00030517578125,0.09175942093133926,0.07110714912414551
0.008000000000000007,0.045501433312892914,0.0,0.09005554765462875,0.07015415281057358
0.008499999999999952,0.045500144362449646,0.0,0.08749349415302277,0.07065694034099579
0.009000000000000008,0.04549742862582207,0.0006103515625,0.08364822715520859,0.06919202953577042
0.009499999999999953,0.04549315571784973,0.0,0.07970459759235382,0.07077127695083618
0.010000000000000009,0.045486390590667725,0.00030517578125,0.07492498308420181,0.07087939232587814
0.010499999999999954,0.04547746106982231,0.00030517578125,0.06930739432573318,0.0705294981598854
0.01100000000000001,0.045466743409633636,0.00091552734375,0.0644807517528534,0.07060645520687103
0.011499999999999955,0.04545312002301216,0.00091552734375,0.05976242199540138,0.07020382583141327
0.01200000000000001,0.04543787240982056,0.00030517578125,0.05470723658800125,0.07023071497678757
0.012499999999999956,0.045420706272125244,0.0006103515625,0.05103110522031784,0.06976070255041122
0.013000000000000012,0.0454026535153389,0.00091552734375,0.047624845057725906,0.07089914381504059
0.013499999999999956,0.04538271948695183,0.0006103515625,0.04510974511504173,0.07049408555030823
0.014000000000000012,0.04536225646734238,0.0006103515625,0.04323047399520874,0.07059731334447861
0.014499999999999957,0.04534102976322174,0.00030517578125,0.042422596365213394,0.06976892799139023
0.015000000000000013,0.045319605618715286,0.0006103515625,0.04172983020544052,0.06962483376264572
0.015499999999999958,0.045297835022211075,0.00030517578125,0.04126307740807533,0.06934237480163574
0.016000000000000014,0.04527648538351059,0.00030517578125,0.040979038923978806,0.06959550082683563
0.01649999999999996,0.04525528848171234,0.00091552734375,0.04047050327062607,0.0692911148071289
0.017000000000000015,0.04523385316133499,0.00030517578125,0.039904724806547165,0.06865974515676498
0.01749999999999996,0.045212890952825546,0.0006103515625,0.03993736952543259,0.06945118308067322
0.018000000000000016,0.04519185796380043,0.00091552734375,0.039030853658914566,0.06930293887853622
0.01849999999999996,0.04517102241516113,0.00030517578125,0.03846665471792221,0.06947837024927139
0.019000000000000017,0.045149896293878555,0.0006103515625,0.037619151175022125,0.06904105097055435
0.019499999999999962,0.04512961953878403,0.00030517578125,0.03679829090833664,0.06998219341039658
0.020000000000000018,0.045108526945114136,0.00030517578125,0.03582003712654114,0.06914883106946945
0.020499999999999963,0.04508800059556961,0.0006103515625,0.035588525235652924,0.0683434009552002
0.02100000000000002,0.04506748542189598,0.00030517578125,0.0349191278219223,0.06792070716619492
0.021499999999999964,0.045046593993902206,0.0006103515625,0.033955857157707214,0.06890401989221573
0.02200000000000002,0.04502595588564873,0.00030517578125,0.03320976346731186,0.068541519343853
0.022499999999999964,0.04500489681959152,0.0,0.03215816989541054,0.06893999129533768
0.02300000000000002,0.044984422624111176,0.0006103515625,0.03131015971302986,0.06923393160104752
0.023499999999999965,0.0449632927775383,0.0,0.030472461134195328,0.06767766922712326
0.02400000000000002,0.04494296759366989,0.0006103515625,0.02995126135647297,0.06860866397619247
0.024499999999999966,0.0449218675494194,0.00030517578125,0.0296549703925848,0.06740570813417435
0.025000000000000022,0.044900957494974136,0.0,0.028937891125679016,0.0684579610824585
0.025499999999999967,0.04488028958439827,0.00030517578125,0.028451140969991684,0.06849686056375504
0.026000000000000023,0.04485964775085449,0.0006103515625,0.027777165174484253,0.06849376857280731
0.026499999999999968,0.04483851045370102,0.0,0.02675650827586651,0.0676136463880539
0.027000000000000024,0.04481789469718933,0.00091552734375,0.02639460191130638,0.06779036670923233
0.02749999999999997,0.044797133654356,0.00091552734375,0.026201441884040833,0.0679355338215828
0.028000000000000025,0.04477597400546074,0.0006103515625,0.025137055665254593,0.06777418404817581
0.02849999999999997,0.04475574195384979,0.0,0.024342721328139305,0.06859835237264633
0.029000000000000026,0.044734470546245575,0.001220703125,0.02419554628431797,0.06842636317014694
0.02949999999999997,0.04471379145979881,0.00091552734375,0.02366507798433304,0.06887250393629074
0.030000000000000027,0.04469285160303116,0.00030517578125,0.023128138855099678,0.06774484366178513
0.03049999999999997,0.04467213898897171,0.0006103515625,0.022658538073301315,0.06875507533550262
0.031000000000000028,0.04465104267001152,0.00030517578125,0.022521551698446274,0.06820911914110184
0.03149999999999997,0.044630248099565506,0.0,0.02240784838795662,0.06943673640489578
0.03200000000000003,0.04460951313376427,0.0006103515625,0.021495092660188675,0.0681314542889595
0.03249999999999997,0.04458879306912422,0.00030517578125,0.02089030109345913,0.06768149137496948
0.03300000000000003,0.04456772282719612,0.0006103515625,0.02082713134586811,0.0687820166349411
0.033499999999999974,0.04454686492681503,0.00030517578125,0.020397748798131943,0.06826744973659515
0.03400000000000003,0.04452625662088394,0.0006103515625,0.020236123353242874,0.06855539977550507
0.034499999999999975,0.04450492933392525,0.0006103515625,0.020141884684562683,0.0685778558254242
0.03500000000000003,0.04448455944657326,0.0,0.019861727952957153,0.0689864531159401
0.035499999999999976,0.04446340724825859,0.0,0.019635850563645363,0.06816177070140839
0.03600000000000003,0.044442594051361084,0.0006103515625,0.019715217873454094,0.0682026743888855
0.03649999999999998,0.0444217212498188,0.0,0.0192868709564209,0.0682750940322876
0.03700000000000003,0.04440075904130936,0.00091552734375,0.019424600526690483,0.06920715421438217
0.03749999999999998,0.04437994211912155,0.00030517578125,0.019021054729819298,0.06942948698997498
0.038000000000000034,0.04435911774635315,0.0006103515625,0.019227951765060425,0.06833726167678833
0.03849999999999998,0.04433836042881012,0.0006103515625,0.01906438358128071,0.06777382642030716
0.039000000000000035,0.044317469000816345,0.0,0.01885707676410675,0.06807158142328262
0.03949999999999998,0.044296640902757645,0.0,0.018875602632761,0.06832117587327957
0.040000000000000036,0.044275593012571335,0.00091552734375,0.018658559769392014,0.0679955706000328
0.04049999999999998,0.04425541311502457,0.00030517578125,0.018343711271882057,0.0687897726893425
0.041000000000000036,0.0442340224981308,0.0006103515625,0.0182737298309803,0.06822481006383896
0.04149999999999998,0.04421349987387657,0.001220703125,0.01789635419845581,0.06932651996612549
0.04200000000000004,0.044192660599946976,0.00030517578125,0.017696049064397812,0.06858192384243011
0.04249999999999998,0.044171981513500214,0.0006103515625,0.017853805795311928,0.06798950582742691
0.04300000000000004,0.04415125772356987,0.0006103515625,0.017496701329946518,0.06900613754987717
0.04349999999999998,0.04413018375635147,0.0006103515625,0.017671015113592148,0.06883783638477325
0.04400000000000004,0.04410957917571068,0.0006103515625,0.017329160124063492,0.06799289584159851
0.044499999999999984,0.04408871755003929,0.0006103515625,0.017181938514113426,0.06832142919301987
0.04500000000000004,0.044067855924367905,0.00030517578125,0.01713842898607254,0.06861922144889832
0.045499999999999985,0.04404701665043831,0.0006103515625,0.016538914293050766,0.06791332364082336
0.04600000000000004,0.044026486575603485,0.0,0.016417155042290688,0.06821344792842865
0.046499999999999986,0.0440053716301918,0.00030517578125,0.015974095091223717,0.06828642636537552
0.04700000000000004,0.0439847856760025,0.0006103515625,0.016165537759661674,0.06894512474536896
0.04749999999999999,0.04396343231201172,0.00091552734375,0.01601365953683853,0.06712339073419571
0.04800000000000004,0.04394299164414406,0.00030517578125,0.015307354740798473,0.06769736856222153
0.04849999999999999,0.04392222315073013,0.00091552734375,0.01464211754500866,0.06757830083370209
0.049000000000000044,0.04390127211809158,0.0006103515625,0.014833964407444,0.06802158802747726
0.04949999999999999,0.04388052597641945,0.0,0.013663345016539097,0.06866515427827835
0.050000000000000044,0.04385958984494209,0.0006103515625,0.013884839601814747,0.06820207834243774
0.05049999999999999,0.0438389927148819,0.00091552734375,0.013380719348788261,0.06857044249773026
0.051000000000000045,0.04381800815463066,0.0006103515625,0.012465985491871834,0.06772500276565552
0.05149999999999999,0.04379754886031151,0.00030517578125,0.012484947219491005,0.06765356659889221
0.052000000000000046,0.04377635195851326,0.0006103515625,0.012298189103603363,0.06788049638271332
0.05249999999999999,0.04375576227903366,0.00030517578125,0.012196766212582588,0.06854964047670364
0.05300000000000005,0.043734412640333176,0.0006103515625,0.011154219508171082,0.06792394816875458
0.05349999999999999,0.04371396452188492,0.0006103515625,0.011767962947487831,0.06871353089809418
0.05400000000000005,0.043692924082279205,0.00030517578125,0.01050502248108387,0.06754478067159653
0.05449999999999999,0.04367195814847946,0.0,0.011416599154472351,0.06818096339702606
0.05500000000000005,0.04365115612745285,0.0006103515625,0.0102101881057024,0.06785640865564346
0.055499999999999994,0.04363013058900833,0.0006103515625,0.009949703700840473,0.06846983730792999
0.05600000000000005,0.043609678745269775,0.00030517578125,0.00965198129415512,0.06872651726007462
0.056499999999999995,0.04358862340450287,0.0006103515625,0.00901532731950283,0.06845873594284058
0.05700000000000005,0.04356806352734566,0.00030517578125,0.00878196582198143,0.06832259893417358
0.057499999999999996,0.04354691877961159,0.0,0.00785461999475956,0.06745149195194244
0.05800000000000005,0.043526388704776764,0.00091552734375,0.007836980745196342,0.06796836853027344
0.058499999999999996,0.043505243957042694,-0.00030517578125,0.007364244665950537,0.06793039292097092
0.05900000000000005,0.04348484054207802,0.0006103515625,0.006737820338457823,0.06774589419364929
0.0595,0.04346394166350365,0.00030517578125,0.00683599105104804,0.06754428148269653
0.06000000000000005,0.043442923575639725,0.0,0.006666258443146944,0.06845197081565857
0.0605,0.04342241212725639,0.00091552734375,0.006595052778720856,0.06703031808137894
0.061000000000000054,0.043401528149843216,0.0006103515625,0.006163363810628653,0.06802918016910553
0.0615,0.04338070750236511,0.00091552734375,0.005955567583441734,0.06875857710838318
0.062000000000000055,0.04335957020521164,0.00091552734375,0.005657430738210678,0.06829442083835602
0.0625,0.043339185416698456,0.00030517578125,0.00537205720320344,0.0681765228509903
0.06299999999999994,0.04331803694367409,0.00030517578125,0.005128698889166117,0.0666114091873169
0.0635,0.04329734295606613,0.0006103515625,0.005327679216861725,0.06866173446178436
0.06399999999999995,0.04327637329697609,0.00030517578125,0.004907700233161449,0.06747367233037949
0.0645,0.04325558617711067,0.00030517578125,0.004384193103760481,0.06814893335103989
0.06499999999999995,0.04323483631014824,0.0006103515625,0.00399549538269639,0.06833614408969879
0.0655,0.04321413114666939,0.00030517578125,0.004188085440546274,0.06793221086263657
0.06599999999999995,0.04319318011403084,0.00030517578125,0.0034933825954794884,0.06782570481300354
0.0665,0.04317215085029602,0.00030517578125,0.003373320447281003,0.06762345135211945
0.06699999999999995,0.04315159097313881,0.001220703125,0.002813067054376006,0.06784286350011826
0.0675,0.04313061013817787,0.0006103515625,0.002281473483890295,0.06796533614397049
0.06799999999999995,0.04311003535985947,0.00030517578125,0.002387208864092827,0.06793944537639618
0.0685,0.043089237064123154,0.0006103515625,0.0023708282969892025,0.06729438155889511
0.06899999999999995,0.04306834936141968,0.0006103515625,0.0019646561704576015,0.06728476285934448
0.0695,0.04304717108607292,0.00030517578125,0.0012614125153049827,0.0668395608663559
0.06999999999999995,0.04302685335278511,0.00030517578125,0.001606422825716436,0.06804591417312622
0.07050000000000001,0.0430058054625988,0.0,0.0013302508741617203,0.06743068993091583
0.07099999999999995,0.04298502206802368,0.00030517578125,0.0010451567359268665,0.06767690181732178
0.07150000000000001,0.042964011430740356,0.00030517578125,0.0007857394521124661,0.06758998334407806
0.07199999999999995,0.042943280190229416,0.00030517578125,0.0006407445180229843,0.06749159842729568
0.07250000000000001,0.042922310531139374,0.0,0.00022643849661108106,0.0673857033252716
0.07299999999999995,0.04290135204792023,0.0006103515625,-7.798703882144764e-05,0.06775183975696564
0.07350000000000001,0.04288085550069809,0.0006103515625,-0.00026576657546684146,0.06863576918840408
0.07399999999999995,0.042859647423028946,0.0,-0.00037556642200797796,0.06700316071510315
0.07450000000000001,0.042838796973228455,0.0006103515625,-0.0003900818701367825,0.06688343733549118
0.07499999999999996,0.042817872017621994,0.0006103515625,-0.00035298848524689674,0.0672740638256073
0.07550000000000001,0.04279708117246628,0.0006103515625,-0.0006884174654260278,0.06774411350488663
0.07599999999999996,0.04277602210640907,0.0006103515625,-0.000814508181065321,0.06732754409313202
0.07650000000000001,0.04275546222925186,0.00030517578125,-0.0003661702503450215,0.06811723113059998
0.07699999999999996,0.042734451591968536,0.00091552734375,-0.0005597473355010152,0.06745702773332596
0.07750000000000001,0.042713627219200134,0.0,-0.0008702014456503093,0.06715533882379532
0.07799999999999996,0.042692672461271286,0.00091552734375,-0.0010632863268256187,0.06746949255466461
0.07850000000000001,0.04267195612192154,0.00091552734375,-0.000654500094242394,0.06624947488307953
0.07899999999999996,0.04265136271715164,0.001220703125,-0.0011801340151578188,0.06828239560127258
0.07950000000000002,0.04263027757406235,0.00030517578125,-0.0015492539387196302,0.06747680902481079
0.07999999999999996,0.042609795928001404,0.0,-0.0012818053364753723,0.06834928691387177
0.08050000000000002,0.04258858039975166,0.00091552734375,-0.0018481527222320437,0.06668569892644882
0.08099999999999996,0.04256819188594818,0.0006103515625,-0.0016401431057602167,0.0667324811220169
0.08150000000000002,0.04254733771085739,0.0006103515625,-0.0023578619584441185,0.06719747930765152
0.08199999999999996,0.042526356875896454,0.0,-0.0017771305283531547,0.0675310418009758
0.08250000000000002,0.04250554367899895,0.00030517578125,-0.0020834938623011112,0.06706199049949646
0.08299999999999996,0.04248477518558502,0.0006103515625,-0.002492188708856702,0.06802421063184738
0.08350000000000002,0.04246411845088005,0.0006103515625,-0.0021639689803123474,0.0679192990064621
0.08399999999999996,0.04244302958250046,0.0,-0.0026418121997267008,0.06662953644990921
0.08450000000000002,0.04242226853966713,0.0,-0.002488654339686036,0.06742978096008301
0.08499999999999996,0.042401038110256195,0.00091552734375,-0.0023533368948847055,0.06688909977674484
0.08550000000000002,0.04238056018948555,0.00091552734375,-0.002760965144261718,0.06798160076141357
0.08599999999999997,0.042359184473752975,0.00030517578125,-0.0029608141630887985,0.06644235551357269
0.08650000000000002,0.04233883321285248,0.00030517578125,-0.0029355138540267944,0.06766610592603683
0.08699999999999997,0.04231766611337662,0.0006103515625,-0.0029018018394708633,0.06662982702255249
0.08750000000000002,0.042297039180994034,0.00030517578125,-0.0029821302741765976,0.06699597835540771
0.08799999999999997,0.042276278138160706,0.00030517578125,-0.003390867030248046,0.06722398102283478
0.08850000000000002,0.04225555434823036,0.0006103515625,-0.0031475569121539593,0.06803171336650848
0.08899999999999997,0.042234793305397034,0.0,-0.003519020276144147,0.06744655221700668
0.08950000000000002,0.04221342131495476,0.00091552734375,-0.0033984764013439417,0.06672180444002151
0.08999999999999997,0.04219289496541023,0.00091552734375,-0.0038093728944659233,0.06689047813415527
0.09050000000000002,0.04217202961444855,0.00030517578125,-0.0038199571426957846,0.06691792607307434
0.09099999999999997,0.0421510748565197,0.0006103515625,-0.003764286870136857,0.06772671639919281
0.09150000000000003,0.04213036596775055,0.0006103515625,-0.0037974505685269833,0.06715508550405502
0.09199999999999997,0.04210959002375603,0.0006103515625,-0.003812959650531411,0.06753517687320709
0.09250000000000003,0.04208838567137718,0.0,-0.004168405197560787,0.06631071865558624
0.09299999999999997,0.04206760972738266,0.00091552734375,-0.0038701617158949375,0.06721320748329163
0.09350000000000003,0.04204660281538963,0.00091552734375,-0.004283484537154436,0.06717168539762497
0.09399999999999997,0.042025644332170486,0.0,-0.004516875836998224,0.06640304625034332
0.09450000000000003,0.04200535640120506,0.00030517578125,-0.004315752070397139,0.06721614301204681
0.09499999999999997,0.04198437184095383,0.0006103515625,-0.004480079282075167,0.0669817179441452
0.09550000000000003,0.04196373000741005,0.0006103515625,-0.004605951718986034,0.06711907684803009
0.09599999999999997,0.04194267839193344,0.0,-0.004540091380476952,0.06637129187583923
0.09650000000000003,0.041922010481357574,0.00030517578125,-0.0047016022726893425,0.06710803508758545
0.09699999999999998,0.04190097376704216,0.00030517578125,-0.00500153936445713,0.06740190833806992
0.09750000000000003,0.04188022017478943,0.00030517578125,-0.0051391213200986385,0.0674237310886383
0.09799999999999998,0.0418597050011158,0.0006103515625,-0.005217105150222778,0.06737146526575089
0.09850000000000003,0.04183896258473396,0.00091552734375,-0.005362367257475853,0.067099429666996
0.09899999999999998,0.041818249970674515,0.0,-0.00567996921017766,0.06676473468542099
0.09950000000000003,0.04179743304848671,0.0006103515625,-0.005510533694177866,0.06674392521381378
0.09999999999999998,0.04177660867571831,0.0006103515625,-0.005189232062548399,0.06789247691631317
0.10050000000000003,0.041755422949790955,0.0006103515625,-0.005527932196855545,0.06602650880813599
0.10099999999999998,0.041735053062438965,0.00030517578125,-0.005773301236331463,0.0673399493098259
0.10150000000000003,0.04171398654580116,0.00030517578125,-0.00612360006198287,0.0675724521279335
0.10199999999999998,0.04169343411922455,0.00091552734375,-0.005627266131341457,0.06713926047086716
0.10250000000000004,0.041672538965940475,0.00091552734375,-0.005726179573684931,0.06681959331035614
0.10299999999999998,0.041651856154203415,0.001220703125,-0.005091840401291847,0.06741927564144135
0.10350000000000004,0.04163170978426933,0.00030517578125,-0.004745335318148136,0.06769288331270218
0.10399999999999998,0.04161214083433151,0.00030517578125,-0.004014325328171253,0.0673770010471344
