Time [s],Lmtc [m],STIM [ ],fGM [N],fGL [N]
0.0,0.04550185799598694,0.00030517578125,0.12586040794849396,0.07326037436723709
0.0004999999999999449,0.04550187289714813,0.00030517578125,0.12547443807125092,0.07264120131731033
0.0010000000000000009,0.04550209268927574,0.00030517578125,0.12570637464523315,0.07257618010044098
0.0014999999999999458,0.045501843094825745,-0.00030517578125,0.12561491131782532,0.0726618692278862
0.0020000000000000018,0.0455019548535347,0.00030517578125,0.1258566975593567,0.07233361154794693
0.0024999999999999467,0.045502133667469025,0.0,0.12583927810192108,0.07239075005054474
0.0030000000000000027,0.04550221189856529,0.00030517578125,0.12583011388778687,0.07261490821838379
0.0034999999999999476,0.04550193250179291,0.00030517578125,0.12553057074546814,0.07276242971420288
0.0040000000000000036,0.04550204426050186,0.0006103515625,0.12556122243404388,0.0732744112610817
0.0044999999999999485,0.045502010732889175,0.0,0.12582166492938995,0.07338599860668182
0.0050000000000000044,0.045501988381147385,0.0,0.12588974833488464,0.07240310311317444
0.005499999999999949,0.045501839369535446,0.0006103515625,0.1256265789270401,0.07194017618894577
0.006000000000000005,0.04550202935934067,0.0006103515625,0.1256968230009079,0.07303142547607422
0.00649999999999995,0.04550202935934067,0.0,0.12504631280899048,0.07280433177947998
0.007000000000000006,0.0455014705657959,0.00030517578125,0.12337315827608109,0.07214352488517761
0.007499999999999951,0.045500487089157104,0.0006103515625,0.12099098414182663,0.07223247736692429
0.008000000000000007,0.04549770429730415,0.0006103515625,0.11780346184968948,0.0720435231924057
0.008499999999999952,0.045493822544813156,0.00030517578125,0.11402145773172379,0.07253611087799072
0.009000000000000008,0.04548824205994606,0.00030517578125,0.10950439423322678,0.07228235900402069
0.009499999999999953,0.045481033623218536,0.0006103515625,0.10490099340677261,0.07302361726760864
0.010000000000000009,0.045472126454114914,0.00030517578125,0.10033786296844482,0.07226935774087906
0.010499999999999954,0.04546187445521355,0.0,0.096416175365448,0.07251668721437454
0.01100000000000001,0.045450594276189804,0.00030517578125,0.09217201918363571,0.07275518774986267
0.011499999999999955,0.04543844982981682,0.0006103515625,0.08894120901823044,0.07258152961730957
0.01200000000000001,0.04542575776576996,0.0,0.08554225414991379,0.07306269556283951
0.012499999999999956,0.045413315296173096,0.0006103515625,0.08297717571258545,0.0726778656244278
0.013000000000000012,0.045400220900774,0.00030517578125,0.08018054813146591,0.07252815365791321
0.013499999999999956,0.04538683220744133,-0.00030517578125,0.0782814547419548,0.07322662323713303
0.014000000000000012,0.04537363350391388,0.00030517578125,0.07673021405935287,0.0720791146159172
0.014499999999999957,0.04536036401987076,0.0006103515625,0.07467826455831528,0.07189129292964935
0.015000000000000013,0.04534735530614853,0.0,0.07298368215560913,0.07113673537969589
0.015499999999999958,0.045334331691265106,0.0,0.07166711241006851,0.07118599861860275
0.016000000000000014,0.045321106910705566,0.0006103515625,0.07070277631282806,0.07145314663648605
0.01649999999999996,0.04530841112136841,0.0,0.06906439363956451,0.07143357396125793
0.017000000000000015,0.04529513791203499,0.00030517578125,0.06787419319152832,0.07105639576911926
0.01749999999999996,0.045282673090696335,0.0,0.06740724295377731,0.07109885662794113
0.018000000000000016,0.04526963829994202,0.00030517578125,0.0660809874534607,0.07140474766492844
0.01849999999999996,0.04525686800479889,0.00030517578125,0.06491108238697052,0.07067332416772842
0.019000000000000017,0.045244332402944565,0.0006103515625,0.06391339004039764,0.070770762860775
0.019499999999999962,0.04523155838251114,-0.00030517578125,0.06326635181903839,0.07031933218240738
0.020000000000000018,0.045218486338853836,0.00030517578125,0.06218807399272919,0.07077664881944656
0.020499999999999963,0.0452059805393219,0.00030517578125,0.06133144721388817,0.07103388011455536
0.02100000000000002,0.045193180441856384,0.00030517578125,0.06114000827074051,0.07072342187166214
0.021499999999999964,0.04518046975135803,0.0,0.059538885951042175,0.0697968453168869
0.02200000000000002,0.04516739770770073,0.0006103515625,0.059082068502902985,0.07032237201929092
0.022499999999999964,0.045154742896556854,0.00030517578125,0.058450061827898026,0.07024320214986801
0.02300000000000002,0.045142095535993576,0.0006103515625,0.05739277973771095,0.07075481861829758
0.023499999999999965,0.04512949287891388,0.0006103515625,0.05651171877980232,0.07009518146514893
0.02400000000000002,0.04511674493551254,0.00030517578125,0.05605340749025345,0.07017713040113449
0.024499999999999966,0.04510411247611046,0.00030517578125,0.055233150720596313,0.07012225687503815
0.025000000000000022,0.04509153589606285,0.00030517578125,0.05424581468105316,0.07106246054172516
0.025499999999999967,0.045078739523887634,0.0,0.05370921641588211,0.069967120885849
0.026000000000000023,0.045066315680742264,0.00091552734375,0.053415458649396896,0.0694618746638298
0.026499999999999968,0.045053545385599136,-0.0006103515625,0.05225329473614693,0.06959030777215958
0.027000000000000024,0.04504091665148735,0.00030517578125,0.05158557370305061,0.06858864426612854
0.02749999999999997,0.045028313994407654,0.00030517578125,0.05104294791817665,0.07005508989095688
0.028000000000000025,0.04501545429229736,0.0006103515625,0.04986931011080742,0.06980203092098236
0.02849999999999997,0.04500297084450722,0.00091552734375,0.0490870364010334,0.06999369710683823
0.029000000000000026,0.044990237802267075,0.0,0.04858408868312836,0.06994184851646423
0.02949999999999997,0.044977519661188126,0.0006103515625,0.04806463047862053,0.06956395506858826
0.030000000000000027,0.04496486112475395,0.00030517578125,0.04750111699104309,0.06984829157590866
0.03049999999999997,0.04495207220315933,0.00091552734375,0.04723558947443962,0.06951049715280533
0.031000000000000028,0.04493936151266098,0.0,0.04644642397761345,0.06925182044506073
0.03149999999999997,0.04492677375674248,0.00030517578125,0.0460580475628376,0.06961839646100998
0.03200000000000003,0.04491391032934189,0.0,0.04548242315649986,0.07055994123220444
0.03249999999999997,0.044901251792907715,0.0006103515625,0.04504753276705742,0.06948520243167877
0.03300000000000003,0.044888731092214584,-0.0006103515625,0.0443246029317379,0.06960783153772354
0.033499999999999974,0.04487594962120056,0.0006103515625,0.043501824140548706,0.06957820802927017
0.03400000000000003,0.04486362636089325,0.0006103515625,0.04332107678055763,0.07030119001865387
0.034499999999999975,0.044850580394268036,0.00030517578125,0.04255121573805809,0.06979311257600784
0.03500000000000003,0.044838011264801025,0.00030517578125,0.04219163581728935,0.06957719475030899
0.035499999999999976,0.044825196266174316,0.0006103515625,0.042122747749090195,0.0694119930267334
0.03600000000000003,0.04481259360909462,0.0,0.04170937463641167,0.06935594975948334
0.03649999999999998,0.04479975998401642,0.00030517578125,0.041091300547122955,0.06925414502620697
0.03700000000000003,0.044787146151065826,0.00030517578125,0.04073812812566757,0.07049866765737534
0.03749999999999998,0.04477459564805031,0.00091552734375,0.040461283177137375,0.06968020647764206
0.038000000000000034,0.04476180300116539,0.0006103515625,0.03995518013834953,0.06980958580970764
0.03849999999999998,0.0447489358484745,0.00030517578125,0.04002227261662483,0.06929190456867218
0.039000000000000035,0.044736385345458984,0.0006103515625,0.039538346230983734,0.0690479427576065
0.03949999999999998,0.04472345486283302,0.00030517578125,0.038947660475969315,0.0697135478258133
0.040000000000000036,0.044710926711559296,0.00030517578125,0.03843417018651962,0.06963913142681122
0.04049999999999998,0.04469845071434975,0.00030517578125,0.03800906985998154,0.06991661339998245
0.041000000000000036,0.04468568041920662,0.00091552734375,0.03733629360795021,0.06984444707632065
0.04149999999999998,0.04467293247580528,0.0006103515625,0.03735798969864845,0.06927019357681274
0.04200000000000004,0.04466033726930618,0.0006103515625,0.036402031779289246,0.06848432123661041
0.04249999999999998,0.044647760689258575,-0.00030517578125,0.03620102256536484,0.06849285960197449
0.04300000000000004,0.044634733349084854,0.00030517578125,0.03561091795563698,0.06946071237325668
0.04349999999999998,0.04462241753935814,0.00030517578125,0.035583533346652985,0.06959881633520126
0.04400000000000004,0.044609639793634415,0.00030517578125,0.035159606486558914,0.07004942744970322
0.044499999999999984,0.04459671303629875,0.0006103515625,0.03435594588518143,0.06915674358606339
0.04500000000000004,0.04458410292863846,0.0,0.034195151180028915,0.06927157193422318
0.045499999999999985,0.04457155242562294,0.0,0.03344084694981575,0.06902631372213364
0.04600000000000004,0.04455897584557533,0.00091552734375,0.03362805396318436,0.06933999806642532
0.046499999999999986,0.04454594478011131,0.0,0.033198628574609756,0.06833787262439728
0.04700000000000004,0.044533621519804,0.0,0.03256068006157875,0.06862138956785202
0.04749999999999999,0.04452067241072655,0.0006103515625,0.032252416014671326,0.06872352957725525
0.04800000000000004,0.044508352875709534,0.0,0.03207904100418091,0.0687086284160614
0.04849999999999999,0.04449526220560074,0.0,0.03171221911907196,0.06889475882053375
0.049000000000000044,0.044482409954071045,0.00030517578125,0.031088167801499367,0.06841970235109329
0.04949999999999999,0.04446978494524956,0.00030517578125,0.030792754143476486,0.06862081587314606
0.050000000000000044,0.04445720091462135,0.0,0.030527520924806595,0.06861778348684311
0.05049999999999999,0.04444444924592972,0.00030517578125,0.030407298356294632,0.0696309506893158
0.051000000000000045,0.04443172737956047,0.0,0.030342409387230873,0.06771375238895416
0.05149999999999999,0.04441896453499794,0.0006103515625,0.029349202290177345,0.0691574215888977
0.052000000000000046,0.044406309723854065,-0.00030517578125,0.029210854321718216,0.06964435428380966
0.05249999999999999,0.044393572956323624,-0.00030517578125,0.029075363650918007,0.06900165975093842
0.05300000000000005,0.044380854815244675,0.0,0.028315577656030655,0.0689210295677185
0.05349999999999999,0.044368114322423935,0.0006103515625,0.028376147150993347,0.06870394945144653
0.05400000000000005,0.044355474412441254,0.00030517578125,0.028108641505241394,0.06849901378154755
0.05449999999999999,0.0443425215780735,0.0006103515625,0.027789564803242683,0.06828493624925613
0.05500000000000005,0.04433000460267067,0.0,0.027469472959637642,0.06869316101074219
0.055499999999999994,0.04431740194559097,0.0,0.02741028182208538,0.06864234060049057
0.05600000000000005,0.04430469870567322,0.00030517578125,0.026976488530635834,0.06830989569425583
0.056499999999999995,0.044291939586400986,0.00030517578125,0.026887455955147743,0.069321408867836
0.05700000000000005,0.04427935555577278,-0.00030517578125,0.026673588901758194,0.06884531676769257
0.057499999999999996,0.04426686465740204,0.00030517578125,0.02621231973171234,0.0691341832280159
0.05800000000000005,0.044253915548324585,0.00030517578125,0.02572144940495491,0.06859461218118668
0.058499999999999996,0.044241227209568024,0.00030517578125,0.025767317041754723,0.06853300333023071
0.05900000000000005,0.04422866180539131,0.0,0.025586070492863655,0.06856394559144974
0.0595,0.04421590268611908,0.0,0.02525615319609642,0.06886835396289825
0.06000000000000005,0.044203195720911026,0.0006103515625,0.02474328689277172,0.06842926889657974
0.0605,0.044190507382154465,0.00030517578125,0.024449650198221207,0.06871341913938522
0.061000000000000054,0.0441778264939785,0.0,0.024324260652065277,0.06899601966142654
0.0615,0.044165171682834625,-0.00030517578125,0.02414986677467823,0.06811730563640594
0.062000000000000055,0.04415246471762657,0.00030517578125,0.024131955578923225,0.06813190132379532
0.0625,0.044139787554740906,0.0,0.023853452876210213,0.06816085427999496
0.06299999999999994,0.04412715137004852,0.0006103515625,0.023448295891284943,0.06845241785049438
0.0635,0.044114626944065094,0.00091552734375,0.02366294153034687,0.06922611594200134
0.06399999999999995,0.044101640582084656,0.00030517578125,0.023993350565433502,0.06907536089420319
0.0645,0.04408908635377884,-0.0006103515625,0.023330651223659515,0.06801986694335938
0.06499999999999995,0.04407641291618347,0.0,0.0234797652810812,0.06830067187547684
0.0655,0.04406358301639557,-0.0006103515625,0.023447049781680107,0.06859967857599258
0.06599999999999995,0.0440506748855114,0.0,0.02291758358478546,0.06841975450515747
0.0665,0.04403818026185036,0.0,0.022778812795877457,0.0685587003827095
0.06699999999999995,0.04402550682425499,0.00030517578125,0.022701025009155273,0.06845618784427643
0.0675,0.044012781232595444,0.0,0.02208711951971054,0.06808897107839584
0.06799999999999995,0.04400030896067619,0.0,0.021612396463751793,0.06816107779741287
0.0685,0.043987542390823364,0.0006103515625,0.021497497335076332,0.06870027631521225
0.06899999999999995,0.04397490620613098,0.0006103515625,0.02122674509882927,0.06883353739976883
0.0695,0.04396211355924606,0.0,0.021300356835126877,0.06799095124006271
0.06999999999999995,0.043949488550424576,0.00030517578125,0.02115933783352375,0.0684397742152214
0.07050000000000001,0.04393645375967026,0.00030517578125,0.02071099728345871,0.06880755722522736
0.07099999999999995,0.0439237542450428,0.0,0.02048468217253685,0.06766901910305023
0.07150000000000001,0.04391132667660713,0.0,0.020248839631676674,0.0687234103679657
0.07199999999999995,0.0438985601067543,0.0,0.019769184291362762,0.06826350092887878
0.07250000000000001,0.04388594999909401,0.00030517578125,0.01970011182129383,0.06828956305980682
0.07299999999999995,0.043873075395822525,0.0,0.019300026819109917,0.06827526539564133
0.07350000000000001,0.043860457837581635,0.00030517578125,0.018743840977549553,0.06876024603843689
0.07399999999999995,0.04384779930114746,0.00030517578125,0.018934687599539757,0.06834222376346588
0.07450000000000001,0.04383518919348717,0.0006103515625,0.018836334347724915,0.06838281452655792
0.07499999999999996,0.04382248595356941,0.0,0.01846262253820896,0.068593330681324
0.07550000000000001,0.04380985349416733,0.00030517578125,0.017837710678577423,0.06888892501592636
0.07599999999999996,0.043797172605991364,-0.00030517578125,0.0178016759455204,0.06879156827926636
0.07650000000000001,0.04378442093729973,0.00030517578125,0.017557920888066292,0.06799087673425674
0.07699999999999996,0.04377157613635063,0.0006103515625,0.017580945044755936,0.0683843195438385
0.07750000000000001,0.043758783489465714,0.0006103515625,0.01747513934969902,0.06791145354509354
0.07799999999999996,0.04374616965651512,-0.00030517578125,0.016843022778630257,0.06909666210412979
0.07850000000000001,0.04373328760266304,-0.0006103515625,0.017016911879181862,0.0687093734741211
0.07899999999999996,0.043720606714487076,0.00030517578125,0.016544071957468987,0.06829451024532318
0.07950000000000002,0.04370797052979469,-0.00030517578125,0.016473226249217987,0.06822144985198975
0.07999999999999996,0.04369555786252022,0.00030517578125,0.016143329441547394,0.06891191005706787
0.08050000000000002,0.0436825230717659,-0.00030517578125,0.015916891396045685,0.06828302145004272
0.08099999999999996,0.043669816106557846,0.0006103515625,0.015457372181117535,0.06833336502313614
0.08150000000000002,0.04365693777799606,0.00030517578125,0.015332954004406929,0.06801082193851471
0.08199999999999996,0.043644580990076065,0.0,0.015629692003130913,0.0681285485625267
0.08250000000000002,0.04363187775015831,0.0006103515625,0.015066776424646378,0.06837886571884155
0.08299999999999996,0.043619006872177124,0.0006103515625,0.01444578729569912,0.06840260326862335
0.08350000000000002,0.04360628128051758,0.00030517578125,0.014814534224569798,0.0682239755988121
0.08399999999999996,0.04359356313943863,0.00030517578125,0.014436639845371246,0.0687149167060852
0.08450000000000002,0.04358087480068207,0.0006103515625,0.013837152160704136,0.06864946335554123
0.08499999999999996,0.04356807470321655,-0.00030517578125,0.013749443925917149,0.06862211227416992
0.08550000000000002,0.0435553677380085,-0.00030517578125,0.013867277652025223,0.06849696487188339
0.08599999999999997,0.04354287311434746,0.0006103515625,0.01342784333974123,0.06825225055217743
0.08650000000000002,0.043530236929655075,0.0006103515625,0.012911757454276085,0.0684562548995018
0.08699999999999997,0.04351756349205971,0.0,0.013496620580554008,0.0686144158244133
0.08750000000000002,0.043505024164915085,-0.0006103515625,0.012565923854708672,0.06892100721597672
0.08799999999999997,0.04349229484796524,0.00030517578125,0.012659952044487,0.06823015958070755
0.08850000000000002,0.04347977414727211,0.0006103515625,0.01215516496449709,0.06795092672109604
0.08899999999999997,0.043467190116643906,0.00030517578125,0.012388455681502819,0.06777999550104141
0.08950000000000002,0.04345421493053436,0.00030517578125,0.01183386892080307,0.068270243704319
0.08999999999999997,0.04344169795513153,0.0,0.01156229991465807,0.06904525309801102
0.09050000000000002,0.04342905059456825,0.0006103515625,0.011709833517670631,0.0678490474820137
0.09099999999999997,0.04341622814536095,0.00091552734375,0.011013530194759369,0.06753126531839371
0.09150000000000003,0.04340358078479767,0.0006103515625,0.011076747439801693,0.06819187104701996
0.09199999999999997,0.043390899896621704,0.0,0.010600372217595577,0.06864464282989502
0.09250000000000003,0.043378110975027084,0.0006103515625,0.010981936939060688,0.06834496557712555
0.09299999999999997,0.04336545988917351,0.00030517578125,0.010090766474604607,0.06754658371210098
0.09350000000000003,0.043352726846933365,0.0006103515625,0.010810943320393562,0.06846421957015991
0.09399999999999997,0.043339960277080536,-0.00030517578125,0.010226915590465069,0.06749866157770157
0.09450000000000003,0.04332733154296875,-0.00030517578125,0.01006857119500637,0.06816226989030838
0.09499999999999997,0.043314576148986816,0.0,0.010553720407187939,0.06841018795967102
0.09550000000000003,0.043301913887262344,0.00091552734375,0.010197675786912441,0.06759028136730194
0.09599999999999997,0.04328916594386101,-0.00030517578125,0.01029382087290287,0.06801515817642212
0.09650000000000003,0.04327651858329773,0.0006103515625,0.009989035315811634,0.06812083721160889
0.09699999999999998,0.043264031410217285,0.0006103515625,0.010262636467814445,0.06933268904685974
0.09750000000000003,0.043251216411590576,0.0006103515625,0.009805155918002129,0.068084716796875
0.09799999999999998,0.04323878511786461,0.00030517578125,0.009902283549308777,0.06811686605215073
0.09850000000000003,0.04322562739253044,0.0006103515625,0.009865714237093925,0.06794191896915436
0.09899999999999998,0.0432131253182888,0.00030517578125,0.00961164478212595,0.06786902993917465
0.09950000000000003,0.043200429528951645,0.0,0.009506350383162498,0.06764882802963257
0.09999999999999998,0.04318779706954956,0.00030517578125,0.00970442034304142,0.0686657652258873
0.10050000000000003,0.04317498579621315,0.0,0.009092185646295547,0.06865613162517548
0.10099999999999998,0.0431625172495842,0.0,0.009099899791181087,0.06907814741134644
0.10150000000000003,0.043149515986442566,0.0,0.008735510520637035,0.06824196130037308
0.10199999999999998,0.04313710331916809,0.00030517578125,0.008647150360047817,0.06759323179721832
0.10250000000000004,0.04312421381473541,0.0006103515625,0.008576854132115841,0.06780122220516205
0.10299999999999998,0.043111592531204224,-0.00030517578125,0.008435647934675217,0.06821542233228683
0.10350000000000004,0.043099112808704376,0.0,0.008424198254942894,0.06881357729434967
0.10399999999999998,0.04308633878827095,0.0,0.008280248381197453,0.06806966662406921
0.10450000000000004,0.04307355731725693,0.00030517578125,0.007805522531270981,0.06801638007164001
0.10499999999999998,0.04306083917617798,0.00030517578125,0.007908686995506287,0.06766679137945175
0.10550000000000004,0.043048180639743805,0.001220703125,0.008435467258095741,0.06831647455692291
0.10599999999999998,0.04303569719195366,0.0,0.007590819615870714,0.0688004419207573
