Time [s],Lmtc [m],STIM [ ],fGM [N],fGL [N]
0.0,0.04550237953662872,0.00091552734375,0.11598540842533112,0.07269971072673798
0.0004999999999999449,0.045502327382564545,0.0006103515625,0.11575012654066086,0.07110873609781265
0.0010000000000000009,0.04550245404243469,0.00030517578125,0.11630208790302277,0.07233866304159164
0.0014999999999999458,0.045501984655857086,0.00030517578125,0.11577237397432327,0.07153259962797165
0.0020000000000000018,0.045502208173274994,0.00030517578125,0.11567981541156769,0.0724245011806488
0.0024999999999999467,0.045502159744501114,0.0006103515625,0.1162383183836937,0.07213675230741501
0.0030000000000000027,0.04550224542617798,-0.00030517578125,0.11553116887807846,0.0721835345029831
0.0034999999999999476,0.045502252876758575,0.0006103515625,0.11637120693922043,0.07248688489198685
0.0040000000000000036,0.04550231248140335,0.0006103515625,0.1157703623175621,0.07252427190542221
0.0044999999999999485,0.0455021932721138,0.00091552734375,0.1158231645822525,0.07191349565982819
0.0050000000000000044,0.04550224542617798,0.0006103515625,0.11574582755565643,0.07234998047351837
0.005499999999999949,0.0455024279654026,0.00091552734375,0.11602684110403061,0.07191600650548935
0.006000000000000005,0.0455021969974041,-0.00030517578125,0.11598949879407883,0.07128344476222992
0.00649999999999995,0.045502353459596634,0.0006103515625,0.1160404309630394,0.07194565236568451
0.007000000000000006,0.04550224915146828,0.00030517578125,0.1161145567893982,0.07216700166463852
0.007499999999999951,0.045502230525016785,0.00030517578125,0.11582886427640915,0.07186173647642136
0.008000000000000007,0.04550238326191902,0.00091552734375,0.11589118093252182,0.07177700102329254
0.008499999999999952,0.0455024316906929,0.00030517578125,0.116177499294281,0.07200992107391357
0.009000000000000008,0.045502420514822006,-0.00030517578125,0.11613147705793381,0.0717058852314949
0.009499999999999953,0.045502305030822754,0.0,0.11548735946416855,0.07142864912748337
0.010000000000000009,0.04550215229392052,0.0006103515625,0.11540023237466812,0.07139389961957932
0.010499999999999954,0.04550202935934067,0.0006103515625,0.1142711415886879,0.07196912169456482
0.01100000000000001,0.04550059512257576,0.0006103515625,0.11182675510644913,0.07201394438743591
0.011499999999999955,0.04549897462129593,0.00030517578125,0.10929778963327408,0.07183567434549332
0.01200000000000001,0.045495521277189255,0.0006103515625,0.1061316505074501,0.0721588283777237
0.012499999999999956,0.045490823686122894,0.0006103515625,0.10263172537088394,0.07190070301294327
0.013000000000000012,0.045484792441129684,0.00091552734375,0.09911870211362839,0.07295899093151093
0.013499999999999956,0.045477740466594696,0.0006103515625,0.0958167016506195,0.07209230214357376
0.014000000000000012,0.04546951502561569,0.00030517578125,0.09316874295473099,0.0718148723244667
0.014499999999999957,0.04546065628528595,0.00091552734375,0.09079001098871231,0.0721786767244339
0.015000000000000013,0.045451570302248,0.0006103515625,0.08809643238782883,0.07259713858366013
0.015499999999999958,0.0454423688352108,0.0006103515625,0.08621548116207123,0.07290727645158768
0.016000000000000014,0.045432839542627335,0.00091552734375,0.08427064120769501,0.07190166413784027
0.01649999999999996,0.04542332515120506,0.0006103515625,0.0826190710067749,0.0721769705414772
0.017000000000000015,0.04541322588920593,0.0006103515625,0.08147120475769043,0.07173223793506622
0.01749999999999996,0.04540375992655754,0.0006103515625,0.08036202937364578,0.07125559449195862
0.018000000000000016,0.045394167304039,0.00030517578125,0.07849030941724777,0.07107199728488922
0.01849999999999996,0.045384712517261505,0.0006103515625,0.07763772457838058,0.07117768377065659
0.019000000000000017,0.04537493735551834,0.00030517578125,0.07681483775377274,0.07084093242883682
0.019499999999999962,0.04536568745970726,0.00030517578125,0.07561565190553665,0.0711141973733902
0.020000000000000018,0.045356012880802155,0.0006103515625,0.0749836340546608,0.0701620951294899
0.020499999999999963,0.04534664750099182,0.00091552734375,0.07445355504751205,0.07001432776451111
0.02100000000000002,0.045337140560150146,0.00030517578125,0.07335788011550903,0.07082799822092056
0.021499999999999964,0.045327842235565186,0.00030517578125,0.0723709687590599,0.0703403502702713
0.02200000000000002,0.0453186109662056,0.00030517578125,0.07163012772798538,0.07111208885908127
0.022499999999999964,0.04530905932188034,0.0,0.07059450447559357,0.07064682990312576
0.02300000000000002,0.0452999621629715,0.0006103515625,0.07043801993131638,0.07061109691858292
0.023499999999999965,0.045290715992450714,0.0006103515625,0.06921742856502533,0.07085195928812027
0.02400000000000002,0.045280858874320984,0.00030517578125,0.06825216859579086,0.070546455681324
0.024499999999999966,0.045271918177604675,0.0006103515625,0.06737640500068665,0.07037247717380524
0.025000000000000022,0.045262571424245834,0.00030517578125,0.06681475043296814,0.07052960246801376
0.025499999999999967,0.04525315389037132,0.00030517578125,0.06616366654634476,0.07014916837215424
0.026000000000000023,0.04524354264140129,0.00030517578125,0.0651855319738388,0.06999891251325607
0.026499999999999968,0.0452345609664917,0.0006103515625,0.06425188481807709,0.07003561407327652
0.027000000000000024,0.04522523656487465,0.00030517578125,0.0638352558016777,0.07029061764478683
0.02749999999999997,0.04521583393216133,0.00030517578125,0.06275708973407745,0.0700850784778595
0.028000000000000025,0.045206356793642044,0.00030517578125,0.06229070574045181,0.07046949863433838
0.02849999999999997,0.04519708454608917,0.00030517578125,0.06211068108677864,0.07048305869102478
0.029000000000000026,0.04518774524331093,0.0006103515625,0.06106048822402954,0.0699535384774208
0.02949999999999997,0.04517829418182373,0.00030517578125,0.06070729345083237,0.0699661523103714
0.030000000000000027,0.045169003307819366,0.0006103515625,0.060406140983104706,0.07019663602113724
0.03049999999999997,0.045159511268138885,0.0,0.0594366155564785,0.07048045098781586
0.031000000000000028,0.045150358229875565,0.00030517578125,0.058844637125730515,0.07009878009557724
0.03149999999999997,0.04514092206954956,0.00030517578125,0.05828487500548363,0.07047265022993088
0.03200000000000003,0.045131560415029526,0.00030517578125,0.05831120163202286,0.07069287449121475
0.03249999999999997,0.04512223228812218,0.00030517578125,0.05704597011208534,0.06957990676164627
0.03300000000000003,0.04511324316263199,0.00030517578125,0.0568569079041481,0.070262111723423
0.033499999999999974,0.04510388523340225,0.00091552734375,0.056297171860933304,0.07006654888391495
0.03400000000000003,0.0450945720076561,0.00030517578125,0.05579583719372749,0.06993898749351501
0.034499999999999975,0.04508514702320099,0.00091552734375,0.05570671334862709,0.06992046535015106
0.03500000000000003,0.04507606476545334,0.0006103515625,0.054899826645851135,0.07022114098072052
0.035499999999999976,0.045066624879837036,0.0,0.0541076622903347,0.07016439735889435
0.03600000000000003,0.04505755379796028,0.00091552734375,0.053741808980703354,0.0699407309293747
0.03649999999999998,0.045048341155052185,0.001220703125,0.053939636796712875,0.07027583569288254
0.03700000000000003,0.045038774609565735,0.00030517578125,0.0532694049179554,0.0705401748418808
0.03749999999999998,0.045029304921627045,0.00030517578125,0.0527748167514801,0.0703052431344986
0.038000000000000034,0.04502037912607193,0.0006103515625,0.052340444177389145,0.07034945487976074
0.03849999999999998,0.04501096159219742,0.00030517578125,0.05230708792805672,0.07064289599657059
0.039000000000000035,0.04500146210193634,0.0,0.05180322006344795,0.07080023735761642
0.03949999999999998,0.04499245062470436,0.00030517578125,0.05119481310248375,0.07102382183074951
0.040000000000000036,0.04498296231031418,0.00030517578125,0.05122758820652962,0.07055951654911041
0.04049999999999998,0.044973649084568024,0.00091552734375,0.051222749054431915,0.06901844590902328
0.041000000000000036,0.04496433958411217,0.00091552734375,0.0507228709757328,0.06978695094585419
0.04149999999999998,0.044955212622880936,0.0006103515625,0.05001392960548401,0.0695578008890152
0.04200000000000004,0.044945843517780304,-0.00030517578125,0.04992494732141495,0.06999441981315613
0.04249999999999998,0.044936470687389374,0.00030517578125,0.049490686506032944,0.06961769610643387
0.04300000000000004,0.04492754116654396,0.00091552734375,0.04961404204368591,0.0692434161901474
0.04349999999999998,0.04491788148880005,0.0006103515625,0.04951999709010124,0.06968415528535843
0.04400000000000004,0.04490872472524643,0.0006103515625,0.04868483915925026,0.069705531001091
0.044499999999999984,0.04489949345588684,0.0,0.04804606735706329,0.06891041249036789
0.04500000000000004,0.04489028826355934,0.0006103515625,0.048127952963113785,0.06936362385749817
0.045499999999999985,0.044880855828523636,0.0006103515625,0.04770597070455551,0.06931617110967636
0.04600000000000004,0.04487162083387375,0.0006103515625,0.04741593077778816,0.06910477578639984
0.046499999999999986,0.04486222565174103,0.0006103515625,0.047085266560316086,0.06989976018667221
0.04700000000000004,0.04485299065709114,0.00091552734375,0.04679369553923607,0.06944244354963303
0.04749999999999999,0.04484374076128006,0.0006103515625,0.04663095623254776,0.06928007304668427
0.04800000000000004,0.04483432695269585,0.00091552734375,0.04644006863236427,0.0696553885936737
0.04849999999999999,0.04482503980398178,0.0006103515625,0.04579930379986763,0.0698273628950119
0.049000000000000044,0.04481550678610802,0.00030517578125,0.04582652077078819,0.06911391019821167
0.04949999999999999,0.04480651021003723,0.00091552734375,0.04543903470039368,0.06935901939868927
0.050000000000000044,0.04479711502790451,0.0,0.04522797092795372,0.0697256475687027
0.05049999999999999,0.044787731021642685,0.00030517578125,0.04492667689919472,0.07025176286697388
0.051000000000000045,0.04477841034531593,0.0006103515625,0.04427174851298332,0.06895529478788376
0.05149999999999999,0.04476913437247276,0.0,0.044561028480529785,0.06991612911224365
0.052000000000000046,0.044759608805179596,0.0,0.043832652270793915,0.0692894235253334
0.05249999999999999,0.044750701636075974,0.0006103515625,0.04394416883587837,0.06975575536489487
0.05300000000000005,0.044741176068782806,0.00030517578125,0.04354448616504669,0.06908242404460907
0.05349999999999999,0.04473187029361725,0.0,0.04333743080496788,0.06928922235965729
0.05400000000000005,0.04472263529896736,0.0006103515625,0.0431528203189373,0.06984267383813858
0.05449999999999999,0.04471324756741524,0.00030517578125,0.043050576001405716,0.06919758021831512
0.05500000000000005,0.044704172760248184,0.00091552734375,0.0426311194896698,0.06898122280836105
0.055499999999999994,0.04469439759850502,0.0006103515625,0.04236943647265434,0.06948030740022659
0.05600000000000005,0.044685248285532,0.00091552734375,0.04220451042056084,0.0690457746386528
0.056499999999999995,0.044676296412944794,0.0006103515625,0.042131539434194565,0.06924912333488464
0.05700000000000005,0.04466656967997551,0.00091552734375,0.04178856685757637,0.06951827555894852
0.057499999999999996,0.0446573868393898,0.0,0.041683629155159,0.06874031573534012
0.05800000000000005,0.04464834928512573,0.00030517578125,0.04151511564850807,0.06976363062858582
0.058499999999999996,0.044638775289058685,0.0006103515625,0.04191258177161217,0.06999456137418747
0.05900000000000005,0.0446292981505394,0.00091552734375,0.04159877821803093,0.0694035068154335
0.0595,0.04461999237537384,0.00030517578125,0.04180443286895752,0.0703294575214386
0.06000000000000005,0.04461068660020828,0.0,0.041924796998500824,0.06993332505226135
0.0605,0.04460155963897705,0.00030517578125,0.042048852890729904,0.06907569617033005
0.061000000000000054,0.04459222033619881,0.0006103515625,0.041835684329271317,0.06972747296094894
0.0615,0.044583097100257874,0.0006103515625,0.04137243703007698,0.06958051770925522
0.062000000000000055,0.04457351937890053,0.00030517578125,0.041299961507320404,0.0698893740773201
0.0625,0.04456406086683273,0.00030517578125,0.04131298139691353,0.06887514889240265
0.06299999999999994,0.04455522447824478,0.00091552734375,0.041272200644016266,0.06905465573072433
0.0635,0.04454579949378967,0.0006103515625,0.04030229151248932,0.06897497177124023
0.06399999999999995,0.04453650861978531,0.0006103515625,0.0407041497528553,0.06907674670219421
0.0645,0.04452723637223244,0.00030517578125,0.040473856031894684,0.06824479252099991
0.06499999999999995,0.04451785981655121,0.00030517578125,0.04004519060254097,0.06884968280792236
0.0655,0.044508472084999084,0.0,0.03951947018504143,0.06788700819015503
0.06599999999999995,0.044499464333057404,0.00091552734375,0.03941190987825394,0.06882911175489426
0.0665,0.04448988288640976,0.0006103515625,0.03919464349746704,0.06843915581703186
0.06699999999999995,0.044480811804533005,0.00030517578125,0.03886549174785614,0.06827787309885025
0.0675,0.04447146877646446,0.0006103515625,0.038212522864341736,0.06872165948152542
0.06799999999999995,0.04446220397949219,0.00091552734375,0.03831417113542557,0.06869126111268997
0.0685,0.04445292800664902,0.00030517578125,0.037739939987659454,0.06825622171163559
0.06899999999999995,0.04444359242916107,0.00091552734375,0.03763353452086449,0.06814073771238327
0.0695,0.0444343276321888,0.00030517578125,0.03737522289156914,0.06778969615697861
0.06999999999999995,0.044424764811992645,-0.00030517578125,0.036428917199373245,0.06933880597352982
0.07050000000000001,0.044415466487407684,0.0006103515625,0.036523014307022095,0.06854986399412155
0.07099999999999995,0.04440643638372421,0.0006103515625,0.035753875970840454,0.06856247037649155
0.07150000000000001,0.04439706727862358,0.00091552734375,0.03511148318648338,0.06839141994714737
0.07199999999999995,0.044387634843587875,0.0006103515625,0.03487646207213402,0.06820540130138397
0.07250000000000001,0.04437835142016411,0.0,0.03464344143867493,0.06886032968759537
0.07299999999999995,0.044369008392095566,0.0006103515625,0.03441227599978447,0.06856637448072433
0.07350000000000001,0.0443594716489315,0.00030517578125,0.033788204193115234,0.06825678050518036
0.07399999999999995,0.044350504875183105,0.00030517578125,0.03330094367265701,0.06908079236745834
0.07450000000000001,0.04434090107679367,0.00030517578125,0.03318054974079132,0.06831551343202591
0.07499999999999996,0.04433165490627289,0.00030517578125,0.03262227401137352,0.068962961435318
0.07550000000000001,0.04432234168052673,0.00030517578125,0.032161202281713486,0.06850797683000565
0.07599999999999996,0.04431319236755371,0.00030517578125,0.032506879419088364,0.06839212030172348
0.07650000000000001,0.044303715229034424,0.00030517578125,0.031683892011642456,0.06853992491960526
0.07699999999999996,0.04429454356431961,0.0006103515625,0.03132040798664093,0.0679379552602768
0.07750000000000001,0.04428515583276749,0.0006103515625,0.031114840880036354,0.06836436688899994
0.07799999999999996,0.04427599534392357,0.0006103515625,0.030659765005111694,0.06905781477689743
0.07850000000000001,0.044266536831855774,-0.00030517578125,0.030213365331292152,0.06832023710012436
0.07899999999999996,0.044257357716560364,0.00030517578125,0.02986874431371689,0.06763970851898193
0.07950000000000002,0.04424810782074928,0.0006103515625,0.029219238087534904,0.06857674568891525
0.07999999999999996,0.04423863813281059,0.00030517578125,0.029023876413702965,0.06800958514213562
0.08050000000000002,0.044229473918676376,0.0006103515625,0.029035689309239388,0.06758496165275574
0.08099999999999996,0.04422023147344589,0.00030517578125,0.028273146599531174,0.06743289530277252
0.08150000000000002,0.04421112313866615,0.0006103515625,0.02828308567404747,0.06786365061998367
0.08199999999999996,0.044201306998729706,0.0006103515625,0.02761351317167282,0.06809072941541672
0.08250000000000002,0.04419221729040146,0.00030517578125,0.027446478605270386,0.06782654672861099
0.08299999999999996,0.044182829558849335,0.00030517578125,0.02722519263625145,0.06788370758295059
0.08350000000000002,0.04417359083890915,0.00030517578125,0.027287090197205544,0.0679997056722641
0.08399999999999996,0.044164273887872696,0.00030517578125,0.026615716516971588,0.06877048313617706
0.08450000000000002,0.04415509104728699,0.0006103515625,0.026515506207942963,0.06896036118268967
0.08499999999999996,0.04414554312825203,0.0006103515625,0.025940533727407455,0.0681338831782341
0.08550000000000002,0.04413643479347229,0.0006103515625,0.02565697208046913,0.06799156963825226
0.08599999999999997,0.04412699490785599,0.0,0.02554813027381897,0.0684991404414177
0.08650000000000002,0.04411766305565834,0.0006103515625,0.025278249755501747,0.06784697622060776
0.08699999999999997,0.04410819709300995,0.0,0.024718904867768288,0.0678437203168869
0.08750000000000002,0.04409906640648842,-0.00030517578125,0.024773843586444855,0.0677768737077713
0.08799999999999997,0.04408980906009674,0.00030517578125,0.02479696087539196,0.06744957715272903
0.08850000000000002,0.044080331921577454,0.0006103515625,0.02468412183225155,0.06797926127910614
0.08899999999999997,0.04407113790512085,0.00030517578125,0.024454940110445023,0.06759718060493469
0.08950000000000002,0.04406208544969559,0.00030517578125,0.024354783818125725,0.06674418598413467
0.08999999999999997,0.044052280485630035,0.0006103515625,0.024021560326218605,0.0671931579709053
0.09050000000000002,0.04404309764504433,0.0006103515625,0.023830581456422806,0.06779367476701736
0.09099999999999997,0.04403373971581459,0.0006103515625,0.024318354204297066,0.06784528493881226
0.09150000000000003,0.044024497270584106,0.0,0.024154353886842728,0.06787323951721191
0.09199999999999997,0.04401491954922676,0.0006103515625,0.02440430223941803,0.06762397289276123
0.09250000000000003,0.04400584101676941,0.0006103515625,0.024513382464647293,0.0683199018239975
0.09299999999999997,0.04399643465876579,0.0006103515625,0.02390795573592186,0.06738373637199402
0.09350000000000003,0.04398700222373009,0.0,0.024105634540319443,0.06729981303215027
0.09399999999999997,0.04397768899798393,0.00091552734375,0.024057207629084587,0.06818746030330658
0.09450000000000003,0.04396862909197807,0.00030517578125,0.023899639025330544,0.06781679391860962
0.09499999999999997,0.04395931959152222,0.00030517578125,0.02320808544754982,0.06743486225605011
0.09550000000000003,0.04395000636577606,0.00091552734375,0.02359481155872345,0.06776193529367447
0.09599999999999997,0.04394069314002991,0.0006103515625,0.023380054160952568,0.06787813454866409
0.09650000000000003,0.043931275606155396,0.00030517578125,0.023042501881718636,0.06792914867401123
0.09699999999999998,0.04392184689640999,0.00091552734375,0.023381300270557404,0.06723380088806152
0.09750000000000003,0.04391282796859741,0.0,0.023010898381471634,0.06788155436515808
0.09799999999999998,0.043903764337301254,0.0006103515625,0.02296181581914425,0.06828267872333527
0.09850000000000003,0.043894149363040924,0.00091552734375,0.02232932858169079,0.06796351820230484
0.09899999999999998,0.04388481751084328,0.0,0.022447654977440834,0.06861340254545212
0.09950000000000003,0.04387550428509712,0.00030517578125,0.022483142092823982,0.06804471462965012
0.09999999999999998,0.04386633634567261,0.0,0.02207404561340809,0.06803002208471298
0.10050000000000003,0.0438569076359272,0.00030517578125,0.02193608321249485,0.06725526601076126
0.10099999999999998,0.043847594410181046,0.0006103515625,0.02182372286915779,0.06820651888847351
0.10150000000000003,0.043838296085596085,0.00091552734375,0.021881043910980225,0.0680314376950264
0.10199999999999998,0.043829064816236496,0.00030517578125,0.02132919616997242,0.06820463389158249
0.10250000000000004,0.043819740414619446,0.0006103515625,0.021312927827239037,0.06830083578824997
0.10299999999999998,0.04381033405661583,0.00030517578125,0.0211667250841856,0.06753180176019669
0.10350000000000004,0.043801162391901016,0.0006103515625,0.0211491696536541,0.06725669652223587
0.10399999999999998,0.04379192739725113,0.00030517578125,0.020791534334421158,0.06758428364992142
