Time [s],Lmtc [m],STIM [ ],fGM [N],fGL [N]
0.0,0.0455024279654026,0.00030517578125,0.11352948844432831,0.07234985381364822
0.0004999999999999449,0.04550233110785484,0.00091552734375,0.11373695731163025,0.07286366820335388
0.0010000000000000009,0.04550199210643768,0.0,0.11358436942100525,0.07216356694698334
0.0014999999999999458,0.04550204798579216,0.00030517578125,0.11345119774341583,0.0722167119383812
0.0020000000000000018,0.04550227150321007,0.0,0.11323394626379013,0.07204470783472061
0.0024999999999999467,0.04550214111804962,0.00091552734375,0.11328288167715073,0.07160716503858566
0.0030000000000000027,0.045502182096242905,0.00030517578125,0.11324754357337952,0.07098066061735153
0.0034999999999999476,0.04550240561366081,0.00030517578125,0.113848477602005,0.07193492352962494
0.0040000000000000036,0.04550216719508171,0.0,0.11303509771823883,0.07173755764961243
0.0044999999999999485,0.04550216346979141,0.00030517578125,0.11349926888942719,0.07222270965576172
0.0050000000000000044,0.04550221562385559,0.0006103515625,0.11368361860513687,0.07193297892808914
0.005499999999999949,0.0455024428665638,0.00030517578125,0.1133790984749794,0.07171589136123657
0.006000000000000005,0.045502182096242905,0.00030517578125,0.11326894909143448,0.07183416932821274
0.00649999999999995,0.04550224915146828,0.0006103515625,0.11315376311540604,0.07151123136281967
0.007000000000000006,0.045502014458179474,0.0006103515625,0.11214172840118408,0.07177719473838806
0.007499999999999951,0.045501261949539185,0.00091552734375,0.11058291047811508,0.07174062728881836
0.008000000000000007,0.04549984633922577,0.00030517578125,0.10781965404748917,0.07247208058834076
0.008499999999999952,0.04549739137291908,-0.0006103515625,0.10440180450677872,0.07372624427080154
0.009000000000000008,0.04549313336610794,0.00030517578125,0.10063207894563675,0.07216965407133102
0.009499999999999953,0.045487549155950546,0.0,0.09642823040485382,0.07180850207805634
0.010000000000000009,0.04548029974102974,0.0006103515625,0.09229327738285065,0.07233696430921555
0.010499999999999954,0.04547115042805672,0.00030517578125,0.08840341120958328,0.07225552946329117
0.01100000000000001,0.04546122997999191,0.00030517578125,0.08509315550327301,0.07205314189195633
0.011499999999999955,0.04545063525438309,0.00030517578125,0.08170397579669952,0.07288828492164612
0.01200000000000001,0.045439526438713074,0.00091552734375,0.07931620627641678,0.07297307252883911
0.012499999999999956,0.045427318662405014,0.0006103515625,0.076421357691288,0.07265912741422653
0.013000000000000012,0.04541587829589844,0.00030517578125,0.07410084456205368,0.0722130686044693
0.013499999999999956,0.04540392383933067,0.0,0.07205687463283539,0.07271970808506012
0.014000000000000012,0.04539194330573082,0.00030517578125,0.07056204974651337,0.07229726016521454
0.014499999999999957,0.04537961632013321,0.0,0.06951504200696945,0.07208257913589478
0.015000000000000013,0.045368023216724396,0.001220703125,0.06775820255279541,0.07238814234733582
0.015499999999999958,0.04535597935318947,0.0,0.06703068315982819,0.07115683704614639
0.016000000000000014,0.04534392058849335,-0.00030517578125,0.0658249631524086,0.07155382633209229
0.01649999999999996,0.0453319177031517,0.00091552734375,0.0649074912071228,0.0714956745505333
0.017000000000000015,0.04532043635845184,0.0,0.06375117599964142,0.07055767625570297
0.01749999999999996,0.045308299362659454,0.00030517578125,0.06282834708690643,0.07064814865589142
0.018000000000000016,0.04529707878828049,0.00091552734375,0.06205758452415466,0.07037302851676941
0.01849999999999996,0.04528539627790451,0.0,0.06130201369524002,0.0707048624753952
0.019000000000000017,0.045273557305336,0.00030517578125,0.06058981269598007,0.07049175351858139
0.019499999999999962,0.04526209458708763,0.0006103515625,0.0595308281481266,0.0706009641289711
0.020000000000000018,0.045250412076711655,0.00030517578125,0.05908600613474846,0.07101411372423172
0.020499999999999963,0.045238595455884933,0.0,0.05814674496650696,0.07027638703584671
0.02100000000000002,0.04522718861699104,0.00030517578125,0.057837869971990585,0.06998147815465927
0.021499999999999964,0.04521523043513298,0.0006103515625,0.05683416873216629,0.06990461051464081
0.02200000000000002,0.04520387202501297,0.00091552734375,0.05687256157398224,0.06956596672534943
0.022499999999999964,0.04519224166870117,0.00030517578125,0.05580256134271622,0.06954904645681381
0.02300000000000002,0.0451805517077446,0.00030517578125,0.0553349070250988,0.06940439343452454
0.023499999999999965,0.04516925662755966,0.00030517578125,0.05474098026752472,0.07022419571876526
0.02400000000000002,0.045156966894865036,0.0006103515625,0.05396782606840134,0.07046391069889069
0.024499999999999966,0.04514560103416443,0.0006103515625,0.05376656726002693,0.06922011822462082
0.025000000000000022,0.045134320855140686,-0.00030517578125,0.05295705795288086,0.0700196772813797
0.025499999999999967,0.04512248933315277,0.00030517578125,0.05276096984744072,0.06981508433818817
0.026000000000000023,0.04511091113090515,0.0006103515625,0.05202033743262291,0.06962887197732925
0.026499999999999968,0.04509943351149559,0.0006103515625,0.05208391323685646,0.07007243484258652
0.027000000000000024,0.04508792236447334,0.00030517578125,0.05114201083779335,0.06967341154813766
0.02749999999999997,0.04507621377706528,0.00030517578125,0.05068311467766762,0.06998079270124435
0.028000000000000025,0.04506457597017288,0.0006103515625,0.050399135798215866,0.07006415724754333
0.02849999999999997,0.045053429901599884,0.00030517578125,0.04977186769247055,0.07075631618499756
0.029000000000000026,0.045041751116514206,0.0,0.049554772675037384,0.0700208991765976
0.02949999999999997,0.04503031075000763,0.00091552734375,0.0491379052400589,0.07033611088991165
0.030000000000000027,0.04501872882246971,0.0006103515625,0.048915088176727295,0.0704454779624939
0.03049999999999997,0.04500728100538254,0.0006103515625,0.04829569160938263,0.07068522274494171
0.031000000000000028,0.044995296746492386,0.00030517578125,0.04779216647148132,0.06984908133745193
0.03149999999999997,0.04498372972011566,0.0006103515625,0.048026081174612045,0.0700497031211853
0.03200000000000003,0.044972337782382965,0.00091552734375,0.047866564244031906,0.07006403058767319
0.03249999999999997,0.04496078938245773,0.0006103515625,0.046938829123973846,0.06967498362064362
0.03300000000000003,0.04494927451014519,0.0006103515625,0.04696120694279671,0.07054678350687027
0.033499999999999974,0.04493776708841324,0.0006103515625,0.04691020026803017,0.07000112533569336
0.03400000000000003,0.0449262410402298,-0.00030517578125,0.04627284035086632,0.06943003833293915
0.034499999999999975,0.04491451755166054,0.00030517578125,0.04613959789276123,0.0698423907160759
0.03500000000000003,0.044903092086315155,0.00030517578125,0.04577254876494408,0.06959487497806549
0.035499999999999976,0.044891465455293655,0.00091552734375,0.04543672502040863,0.06973282992839813
0.03600000000000003,0.04487986117601395,-0.00030517578125,0.04498529061675072,0.06991388648748398
0.03649999999999998,0.04486852139234543,0.0006103515625,0.044844746589660645,0.07026399672031403
0.03700000000000003,0.04485690966248512,0.00030517578125,0.04410772770643234,0.06987182050943375
0.03749999999999998,0.044845227152109146,0.0006103515625,0.04393373802304268,0.07031229138374329
0.038000000000000034,0.04483358561992645,0.0006103515625,0.044155918061733246,0.06894774734973907
0.03849999999999998,0.04482247680425644,0.00030517578125,0.04350404068827629,0.06907666474580765
0.039000000000000035,0.044810473918914795,0.00030517578125,0.043394796550273895,0.06965549290180206
0.03949999999999998,0.04479900747537613,0.00030517578125,0.043628595769405365,0.06902769207954407
0.040000000000000036,0.044787850230932236,0.00030517578125,0.04277697950601578,0.06980962306261063
0.04049999999999998,0.04477589577436447,0.0006103515625,0.04233074560761452,0.06910742819309235
0.041000000000000036,0.04476422443985939,0.00030517578125,0.042221490293741226,0.06886158883571625
0.04149999999999998,0.044752784073352814,0.0006103515625,0.04161905124783516,0.06963860988616943
0.04200000000000004,0.04474122077226639,0.0006103515625,0.04184861481189728,0.06934788078069687
0.04249999999999998,0.0447295606136322,-0.00030517578125,0.04099355638027191,0.07052657008171082
0.04300000000000004,0.044718075543642044,0.0006103515625,0.0415971539914608,0.06948022544384003
0.04349999999999998,0.04470639303326607,-0.00030517578125,0.040792886167764664,0.06900926679372787
0.04400000000000004,0.04469482600688934,0.00030517578125,0.040269989520311356,0.0687083750963211
0.044499999999999984,0.044683296233415604,0.00030517578125,0.040542636066675186,0.06906283646821976
0.04500000000000004,0.044671785086393356,0.00030517578125,0.03986657038331032,0.06903592497110367
0.045499999999999985,0.04466027021408081,0.00030517578125,0.040111929178237915,0.06884443014860153
0.04600000000000004,0.04464883729815483,0.00030517578125,0.03958959877490997,0.06940163671970367
0.046499999999999986,0.04463712126016617,0.0006103515625,0.03896283730864525,0.0688355416059494
0.04700000000000004,0.04462543874979019,0.0006103515625,0.039011552929878235,0.06896484643220901
0.04749999999999999,0.04461390897631645,0.00030517578125,0.03823626786470413,0.06814887374639511
0.04800000000000004,0.04460243135690689,0.0006103515625,0.038250986486673355,0.06949907541275024
0.04849999999999999,0.04459076002240181,0.00030517578125,0.03784624859690666,0.0694291740655899
0.049000000000000044,0.044579051434993744,0.00030517578125,0.03709270805120468,0.06801111251115799
0.04949999999999999,0.04456767812371254,0.00030517578125,0.03744859620928764,0.06924783438444138
0.050000000000000044,0.04455609247088432,0.00030517578125,0.03667296841740608,0.06805002689361572
0.05049999999999999,0.04454460367560387,0.0,0.03667297214269638,0.06877190619707108
0.051000000000000045,0.04453267157077789,0.0,0.03626831993460655,0.06879375874996185
0.05149999999999999,0.044521503150463104,0.0006103515625,0.0358278714120388,0.06825215369462967
0.052000000000000046,0.04450978711247444,0.0,0.03541488200426102,0.06864718347787857
0.05249999999999999,0.04449843987822533,0.00030517578125,0.035310134291648865,0.06847520172595978
0.05300000000000005,0.044486671686172485,0.00030517578125,0.034960661083459854,0.06831593811511993
0.05349999999999999,0.04447513818740845,0.0,0.03436598926782608,0.06852955371141434
0.05400000000000005,0.044463519006967545,0.0006103515625,0.03424007445573807,0.0685407966375351
0.05449999999999999,0.04445170611143112,0.00030517578125,0.033991750329732895,0.0690033882856369
0.05500000000000005,0.044440045952796936,0.0006103515625,0.033743955194950104,0.0692455917596817
0.055499999999999994,0.04442889615893364,0.0006103515625,0.03290300816297531,0.06858696043491364
0.05600000000000005,0.04441709816455841,0.0,0.03277238830924034,0.06852518767118454
0.056499999999999995,0.04440556466579437,0.00030517578125,0.03262018412351608,0.06904543936252594
0.05700000000000005,0.0443938784301281,0.0006103515625,0.03214950114488602,0.0685047134757042
0.057499999999999996,0.04438218101859093,0.00030517578125,0.03138132020831108,0.06844962388277054
0.05800000000000005,0.04437101259827614,0.00091552734375,0.03124391660094261,0.06858018040657043
0.058499999999999996,0.04435890167951584,0.0006103515625,0.030976926907896996,0.06784176826477051
0.05900000000000005,0.044347506016492844,0.00030517578125,0.03066396340727806,0.06797368824481964
0.0595,0.0443362295627594,0.00030517578125,0.030301066115498543,0.06842342764139175
0.06000000000000005,0.04432431980967522,0.00030517578125,0.02965359017252922,0.06827083230018616
0.0605,0.04431285709142685,0.00030517578125,0.029237031936645508,0.06792618334293365
0.061000000000000054,0.04430147260427475,0.0006103515625,0.029056375846266747,0.0684710219502449
0.0615,0.044289931654930115,0.00091552734375,0.02897588163614273,0.06803398579359055
0.062000000000000055,0.04427818953990936,0.0006103515625,0.028254326432943344,0.06869552284479141
0.0625,0.04426639899611473,0.00030517578125,0.0275785680860281,0.06814507395029068
0.06299999999999994,0.04425531253218651,0.00030517578125,0.027462918311357498,0.06764551252126694
0.0635,0.04424342140555382,0.0,0.0271735992282629,0.06798714399337769
0.06399999999999995,0.04423179477453232,-0.00030517578125,0.026753215119242668,0.06782867014408112
0.0645,0.044220492243766785,0.0006103515625,0.025968432426452637,0.06770022213459015
0.06499999999999995,0.044209081679582596,0.0006103515625,0.026245390996336937,0.06821943074464798
0.0655,0.044197261333465576,0.0006103515625,0.025323310866951942,0.0675119087100029
0.06599999999999995,0.04418577253818512,0.00030517578125,0.025349104776978493,0.06872665882110596
0.0665,0.0441739484667778,0.0,0.02500773034989834,0.06807961314916611
0.06699999999999995,0.04416261613368988,0.00030517578125,0.02422434650361538,0.06776081025600433
0.0675,0.04415092617273331,0.0006103515625,0.02428284101188183,0.0673007220029831
0.06799999999999995,0.04413945972919464,0.00030517578125,0.02393464371562004,0.06802451610565186
0.0685,0.044127997010946274,0.00030517578125,0.023251445963978767,0.06806791573762894
0.06899999999999995,0.04411628097295761,0.00030517578125,0.02307259663939476,0.06762130558490753
0.0695,0.044104792177677155,0.00030517578125,0.02327418141067028,0.06764055043458939
0.06999999999999995,0.04409318044781685,0.0006103515625,0.022165991365909576,0.06777770072221756
0.07050000000000001,0.04408162087202072,0.0,0.021825896576046944,0.06744587421417236
0.07099999999999995,0.044070158153772354,0.00030517578125,0.0216513779014349,0.067285917699337
0.07150000000000001,0.044058360159397125,0.00030517578125,0.021400211378932,0.06789061427116394
0.07199999999999995,0.044047076255083084,0.00030517578125,0.0208936408162117,0.06686924397945404
0.07250000000000001,0.04403530806303024,0.0006103515625,0.021099120378494263,0.06732100248336792
0.07299999999999995,0.04402359575033188,0.00091552734375,0.020465925335884094,0.06755663454532623
0.07350000000000001,0.044011861085891724,0.0006103515625,0.020227273926138878,0.06836070120334625
0.07399999999999995,0.04400033876299858,0.00030517578125,0.01985083520412445,0.06804095953702927
0.07450000000000001,0.04398898035287857,0.00030517578125,0.019903192296624184,0.06773779541254044
0.07499999999999996,0.043977219611406326,0.0,0.019758189097046852,0.06811419129371643
0.07550000000000001,0.04396554082632065,0.00091552734375,0.018868720158934593,0.06833487749099731
0.07599999999999996,0.04395409673452377,0.00152587890625,0.019362835213541985,0.06793197244405746
0.07650000000000001,0.0439424030482769,0.0006103515625,0.018516086041927338,0.0683685690164566
0.07699999999999996,0.04393091797828674,0.0,0.018416311591863632,0.06806962192058563
0.07750000000000001,0.04391927272081375,0.00091552734375,0.017955193296074867,0.06877071410417557
0.07799999999999996,0.04390762746334076,0.0006103515625,0.017765473574399948,0.06766360253095627
0.07850000000000001,0.0438959114253521,0.0,0.01772150583565235,0.06656543165445328
0.07899999999999996,0.043884746730327606,0.0006103515625,0.017556849867105484,0.06700829416513443
0.07950000000000002,0.04387292265892029,0.0006103515625,0.017881285399198532,0.06673465669155121
0.07999999999999996,0.04386114701628685,0.0006103515625,0.017230162397027016,0.06747487187385559
0.08050000000000002,0.04384970664978027,0.00030517578125,0.017351876944303513,0.06739868223667145
0.08099999999999996,0.04383815824985504,0.00030517578125,0.017826594412326813,0.06754546612501144
0.08150000000000002,0.04382648319005966,0.00091552734375,0.01742650382220745,0.06769056618213654
0.08199999999999996,0.04381491243839264,0.0006103515625,0.01722731441259384,0.06716066598892212
0.08250000000000002,0.043803539127111435,0.00030517578125,0.017308957874774933,0.06710229814052582
0.08299999999999996,0.04379193112254143,0.00030517578125,0.016888713464140892,0.0670345351099968
0.08350000000000002,0.04378024861216545,0.00091552734375,0.017138076946139336,0.06609717756509781
0.08399999999999996,0.04376861825585365,0.0,0.01671595126390457,0.06713958829641342
0.08450000000000002,0.04375713691115379,0.0006103515625,0.016167744994163513,0.06661784648895264
0.08499999999999996,0.0437454991042614,-0.00030517578125,0.01637193374335766,0.0672784298658371
0.08550000000000002,0.043733954429626465,0.0,0.015787586569786072,0.06739113479852676
0.08599999999999997,0.043722573667764664,0.0006103515625,0.01604820415377617,0.06759007275104523
0.08650000000000002,0.04371092468500137,0.0,0.015452499501407146,0.06705064326524734
0.08699999999999997,0.04369952902197838,0.00030517578125,0.015589063055813313,0.06726212054491043
0.08750000000000002,0.04368766397237778,0.0006103515625,0.015388524159789085,0.06619176268577576
0.08799999999999997,0.04367626830935478,0.0006103515625,0.015105119906365871,0.0679938793182373
0.08850000000000002,0.04366433992981911,0.00030517578125,0.014588813297450542,0.06746567040681839
0.08899999999999997,0.0436529815196991,0.00091552734375,0.014488853514194489,0.06781680881977081
0.08950000000000002,0.04364120587706566,0.0006103515625,0.014153621159493923,0.0679466500878334
0.08999999999999997,0.04362984374165535,0.0006103515625,0.013958784751594067,0.067367322742939
0.09050000000000002,0.043618086725473404,0.0006103515625,0.014146222732961178,0.06813646107912064
0.09099999999999997,0.04360661283135414,0.0006103515625,0.013632627204060555,0.06770642846822739
0.09150000000000003,0.043594732880592346,0.00091552734375,0.013485146686434746,0.06790537387132645
0.09199999999999997,0.043583087623119354,0.0,0.013173016719520092,0.06779445707798004
0.09250000000000003,0.04357149079442024,0.00030517578125,0.013605074025690556,0.06769726425409317
0.09299999999999997,0.04355969652533531,0.00030517578125,0.013433101586997509,0.06763138622045517
0.09350000000000003,0.043548278510570526,0.00030517578125,0.01352228969335556,0.06758667528629303
0.09399999999999997,0.04353681579232216,0.0,0.013360231183469296,0.06751302629709244
0.09450000000000003,0.04352535679936409,0.0006103515625,0.013368100859224796,0.06824052333831787
0.09499999999999997,0.043513454496860504,0.00030517578125,0.013034789822995663,0.06753281503915787
0.09550000000000003,0.04350229725241661,0.00030517578125,0.013365696184337139,0.06882839649915695
0.09599999999999997,0.04349057748913765,0.00030517578125,0.013007167726755142,0.06780778616666794
0.09650000000000003,0.043479129672050476,0.0006103515625,0.013123435899615288,0.06787877529859543
0.09699999999999998,0.04346742853522301,0.00030517578125,0.012883719988167286,0.06832241266965866
0.09750000000000003,0.043455999344587326,0.0,0.013097206130623817,0.06766770780086517
0.09799999999999998,0.043444469571113586,0.0006103515625,0.012833395972847939,0.06752048432826996
0.09850000000000003,0.04343276470899582,0.0006103515625,0.012391036376357079,0.06708566844463348
0.09899999999999998,0.04342136159539223,0.00030517578125,0.012663600035011768,0.06698030978441238
0.09950000000000003,0.04340985417366028,0.0,0.012363948859274387,0.06757349520921707
0.09999999999999998,0.043398257344961166,0.00030517578125,0.012057146057486534,0.0671905130147934
0.10050000000000003,0.04338680952787399,0.00030517578125,0.012242184020578861,0.06845785677433014
0.10099999999999998,0.04337545856833458,0.00030517578125,0.011946601793169975,0.0675426721572876
0.10150000000000003,0.04336359351873398,0.0006103515625,0.011282057501375675,0.0673571527004242
0.10199999999999998,0.04335189238190651,0.0006103515625,0.01128887664526701,0.0675143450498581
0.10250000000000004,0.043340642005205154,0.0006103515625,0.011332512833178043,0.0674968957901001
0.10299999999999998,0.04332885146141052,0.0,0.010764729231595993,0.06698863208293915
0.10350000000000004,0.04331747442483902,0.00030517578125,0.010819942690432072,0.0672435462474823
0.10399999999999998,0.04330576956272125,0.0006103515625,0.010366990230977535,0.06763052940368652
0.10450000000000004,0.04329428821802139,0.0006103515625,0.010289487428963184,0.06823614239692688
