Time [s],Lmtc [m],STIM [ ],fGM [N],fGL [N]
0.0,0.04550229758024216,0.0,0.10164763033390045,0.07125061750411987
0.0004999999999999449,0.04550231993198395,0.0006103515625,0.10111162811517715,0.07028274238109589
0.0010000000000000009,0.045502495020627975,0.0,0.10175194591283798,0.07091672718524933
0.0014999999999999458,0.04550215229392052,-0.00030517578125,0.10138912498950958,0.07052462548017502
0.0020000000000000018,0.0455017052590847,0.0006103515625,0.10164878517389297,0.07029958814382553
0.0024999999999999467,0.0455024354159832,0.0006103515625,0.10178596526384354,0.0710751935839653
0.0030000000000000027,0.04550193250179291,0.00030517578125,0.10148458927869797,0.07135516405105591
0.0034999999999999476,0.04550214484333992,0.0006103515625,0.10207861661911011,0.07131596654653549
0.0040000000000000036,0.045501966029405594,0.0006103515625,0.1020355150103569,0.07085123658180237
0.0044999999999999485,0.04550226777791977,0.00030517578125,0.10196857154369354,0.07119385153055191
0.0050000000000000044,0.04550204798579216,0.00030517578125,0.10217304527759552,0.07010950148105621
0.005499999999999949,0.04550231620669365,0.00030517578125,0.10227300226688385,0.07108422368764877
0.006000000000000005,0.045501984655857086,0.00030517578125,0.10242438316345215,0.07011798769235611
0.00649999999999995,0.04550207033753395,0.00030517578125,0.10244805365800858,0.07129693031311035
0.007000000000000006,0.045502014458179474,0.00091552734375,0.10234204679727554,0.0709654837846756
0.007499999999999951,0.045502156019210815,0.0006103515625,0.10249587893486023,0.0709901750087738
0.008000000000000007,0.04550210013985634,0.0006103515625,0.10267741978168488,0.07089406251907349
0.008499999999999952,0.04550224915146828,0.00091552734375,0.10289784520864487,0.0704621896147728
0.009000000000000008,0.04550217092037201,0.0006103515625,0.10307072848081589,0.07061811536550522
0.009499999999999953,0.04550223797559738,0.00030517578125,0.10293789952993393,0.07070869952440262
0.010000000000000009,0.04550215229392052,0.0006103515625,0.10242941230535507,0.07130169868469238
0.010499999999999954,0.045501332730054855,0.0006103515625,0.10146624594926834,0.07095818966627121
0.01100000000000001,0.04550086334347725,0.00030517578125,0.09901529550552368,0.07151098549365997
0.011499999999999955,0.045498304069042206,0.00030517578125,0.09595692902803421,0.06997088342905045
0.01200000000000001,0.04549495130777359,0.00030517578125,0.09267082810401917,0.07053409516811371
0.012499999999999956,0.045489780604839325,0.00030517578125,0.08818107843399048,0.0701848492026329
0.013000000000000012,0.045483119785785675,0.0006103515625,0.08447450399398804,0.0705457255244255
0.013499999999999956,0.04547485336661339,0.0006103515625,0.08084442466497421,0.07083313167095184
0.014000000000000012,0.04546545445919037,0.00091552734375,0.07778982073068619,0.0709325298666954
0.014499999999999957,0.04545455425977707,0.00030517578125,0.07507459819316864,0.0711529403924942
0.015000000000000013,0.04544341564178467,0.00030517578125,0.07247905433177948,0.07035753130912781
0.015499999999999958,0.04543221369385719,-0.0006103515625,0.07074106484651566,0.071245476603508
0.016000000000000014,0.045420169830322266,0.0006103515625,0.06909474730491638,0.07053107023239136
0.01649999999999996,0.04540807381272316,0.0006103515625,0.0678030252456665,0.07036927342414856
0.017000000000000015,0.04539603367447853,0.0006103515625,0.0658826231956482,0.07084661722183228
0.01749999999999996,0.04538441821932793,0.0006103515625,0.06484890729188919,0.07088227570056915
0.018000000000000016,0.04537208005785942,0.00091552734375,0.06376560032367706,0.07011806219816208
0.01849999999999996,0.045360468327999115,0.00030517578125,0.06296022236347198,0.0707346647977829
0.019000000000000017,0.04534825682640076,0.00091552734375,0.062175389379262924,0.07008717954158783
0.019499999999999962,0.04533647373318672,0.0,0.06142841652035713,0.06973784416913986
0.020000000000000018,0.04532494768500328,0.0,0.06079821288585663,0.06945584714412689
0.020499999999999963,0.04531324282288551,0.0006103515625,0.060317184776067734,0.07035789638757706
0.02100000000000002,0.04530174657702446,0.00030517578125,0.05917641520500183,0.07035394757986069
0.021499999999999964,0.045289888978004456,0.0006103515625,0.05823029577732086,0.07064587622880936
0.02200000000000002,0.04527838155627251,0.0006103515625,0.058057982474565506,0.0697224885225296
0.022499999999999964,0.045266736298799515,0.0,0.0569404661655426,0.06957816332578659
0.02300000000000002,0.04525507614016533,0.00030517578125,0.056668538600206375,0.06977829337120056
0.023499999999999965,0.045243315398693085,0.001220703125,0.05582407861948013,0.0692421942949295
0.02400000000000002,0.045232053846120834,0.0006103515625,0.05493165925145149,0.07059010863304138
0.024499999999999966,0.045220084488391876,0.0006103515625,0.05393848568201065,0.07011844217777252
0.025000000000000022,0.04520873352885246,0.0006103515625,0.05331403762102127,0.07039336860179901
0.025499999999999967,0.045196957886219025,0.0006103515625,0.05259796977043152,0.06978552043437958
0.026000000000000023,0.0451851561665535,0.0006103515625,0.052234016358852386,0.06945788860321045
0.026499999999999968,0.045173678547143936,0.0006103515625,0.05152543634176254,0.06929295510053635
0.027000000000000024,0.04516204074025154,0.00030517578125,0.050703421235084534,0.06979058682918549
0.02749999999999997,0.045150503516197205,0.00030517578125,0.05037979409098625,0.06963761895895004
0.028000000000000025,0.04513878375291824,0.00030517578125,0.04962720349431038,0.07001461833715439
0.02849999999999997,0.04512741416692734,0.0,0.04960494488477707,0.06910267472267151
0.029000000000000026,0.045115478336811066,0.00030517578125,0.0486501008272171,0.06873562186956406
0.02949999999999997,0.04510437697172165,0.0,0.04765285179018974,0.06875553727149963
0.030000000000000027,0.0450926348567009,0.0006103515625,0.04794435575604439,0.06918323785066605
0.03049999999999997,0.04508126154541969,0.00030517578125,0.0474076084792614,0.06993335485458374
0.031000000000000028,0.04506951570510864,0.00030517578125,0.04681951180100441,0.0694131925702095
0.03149999999999997,0.04505838081240654,0.00030517578125,0.046011123806238174,0.07014168798923492
0.03200000000000003,0.045046616345644,-0.00030517578125,0.04596429318189621,0.06926880776882172
0.03249999999999997,0.045034971088171005,0.0,0.04530399665236473,0.06925036758184433
0.03300000000000003,0.04502331092953682,0.0,0.044561464339494705,0.06838518381118774
0.033499999999999974,0.045011866837739944,0.0,0.04417197406291962,0.06939435750246048
0.03400000000000003,0.04500050097703934,-0.00030517578125,0.04397543519735336,0.06954057514667511
0.034499999999999975,0.044988662004470825,0.0,0.043673235923051834,0.06904947757720947
0.03500000000000003,0.044977061450481415,0.00030517578125,0.04362914711236954,0.06938578933477402
0.035499999999999976,0.04496542364358902,0.0006103515625,0.04321199283003807,0.06894024461507797
0.03600000000000003,0.04495399072766304,0.0006103515625,0.04222546145319939,0.06906617432832718
0.03649999999999998,0.04494224488735199,0.00030517578125,0.042096830904483795,0.0686773806810379
0.03700000000000003,0.04493093490600586,0.0006103515625,0.042298078536987305,0.06912364810705185
0.03749999999999998,0.04491904377937317,0.0006103515625,0.04161413386464119,0.0690607950091362
0.038000000000000034,0.04490789398550987,0.0006103515625,0.041500024497509,0.06889878213405609
0.03849999999999998,0.044896192848682404,0.001220703125,0.04140883684158325,0.06922812014818192
0.039000000000000035,0.04488461837172508,0.00030517578125,0.04071138799190521,0.06891746819019318
0.03949999999999998,0.04487292468547821,0.00030517578125,0.040450338274240494,0.06814741343259811
0.040000000000000036,0.044861577451229095,0.0,0.04004284366965294,0.06911640614271164
0.04049999999999998,0.044850025326013565,0.0006103515625,0.04006056487560272,0.06867648661136627
0.041000000000000036,0.04483828321099281,0.0006103515625,0.03971431031823158,0.06885727494955063
0.04149999999999998,0.04482698813080788,0.00030517578125,0.03882622346282005,0.06926547735929489
0.04200000000000004,0.04481543228030205,0.0006103515625,0.0391717255115509,0.0695505291223526
0.04249999999999998,0.04480374604463577,0.00030517578125,0.03865741193294525,0.06884263455867767
0.04300000000000004,0.044791847467422485,0.0006103515625,0.0382540337741375,0.06853204220533371
0.04349999999999998,0.044780928641557693,0.00091552734375,0.037785854190588,0.06913920491933823
0.04400000000000004,0.044768981635570526,0.00030517578125,0.037484291940927505,0.06899537146091461
0.044499999999999984,0.04475755989551544,0.00091552734375,0.03738715499639511,0.06849677115678787
0.04500000000000004,0.04474591836333275,0.0,0.036716852337121964,0.06889678537845612
0.045499999999999985,0.044734299182891846,0.00030517578125,0.03635840490460396,0.06944257766008377
0.04600000000000004,0.044722411781549454,0.00091552734375,0.036062147468328476,0.06862470507621765
0.046499999999999986,0.044711023569107056,0.00030517578125,0.03569125384092331,0.06985925137996674
0.04700000000000004,0.04469957947731018,0.00030517578125,0.03553977608680725,0.06913053244352341
0.04749999999999999,0.0446879006922245,0.0006103515625,0.03525499254465103,0.06933806836605072
0.04800000000000004,0.04467634856700897,0.0006103515625,0.03459426760673523,0.06831202656030655
0.04849999999999999,0.04466507211327553,0.0006103515625,0.03468387946486473,0.06789606064558029
0.049000000000000044,0.044653501361608505,0.00030517578125,0.03388066589832306,0.06893643736839294
0.04949999999999999,0.04464173689484596,0.00091552734375,0.03384264186024666,0.06832528859376907
0.050000000000000044,0.04463031515479088,0.00030517578125,0.033267758786678314,0.06839710474014282
0.05049999999999999,0.04461856186389923,0.00030517578125,0.0330820195376873,0.06778978556394577
0.051000000000000045,0.04460717737674713,0.0006103515625,0.032494865357875824,0.06923866271972656
0.05149999999999999,0.044595472514629364,0.0006103515625,0.03234380856156349,0.06831902265548706
0.052000000000000046,0.04458412528038025,0.0006103515625,0.03182198107242584,0.06841934472322464
0.05249999999999999,0.04457241669297218,0.00030517578125,0.03173554316163063,0.06854744255542755
0.05300000000000005,0.04456067085266113,0.0006103515625,0.031313881278038025,0.0689648762345314
0.05349999999999999,0.044549256563186646,0.00030517578125,0.030530864372849464,0.06810277700424194
0.05400000000000005,0.0445377454161644,0.00030517578125,0.030791785567998886,0.06859654933214188
0.05449999999999999,0.044526051729917526,0.0006103515625,0.03002064675092697,0.06856423616409302
0.05500000000000005,0.044514503329992294,0.00091552734375,0.030018694698810577,0.06865870952606201
0.055499999999999994,0.04450269415974617,-0.0006103515625,0.029408005997538567,0.06808173656463623
0.05600000000000005,0.044491320848464966,0.00030517578125,0.028714556246995926,0.06848574429750443
0.056499999999999995,0.04448005557060242,0.0006103515625,0.0287418644875288,0.06881898641586304
0.05700000000000005,0.044468384236097336,0.0006103515625,0.028362281620502472,0.06838652491569519
0.057499999999999996,0.0444566011428833,0.00030517578125,0.028113026171922684,0.06840019673109055
0.05800000000000005,0.044444940984249115,0.0006103515625,0.027679674327373505,0.06854790449142456
0.058499999999999996,0.044433604925870895,0.0,0.027438418939709663,0.06973034143447876
0.05900000000000005,0.044421568512916565,0.0,0.0272450502961874,0.06839492917060852
0.0595,0.04441031813621521,0.00030517578125,0.026702288538217545,0.0684429481625557
0.06000000000000005,0.04439885914325714,0.0006103515625,0.02621055766940117,0.06870642304420471
0.0605,0.044387053698301315,0.0,0.026318393647670746,0.06878625601530075
0.061000000000000054,0.04437536001205444,0.0,0.025339575484395027,0.06838075816631317
0.0615,0.04436367377638817,0.0006103515625,0.025164322927594185,0.06871841847896576
0.062000000000000055,0.044352296739816666,0.00091552734375,0.024582654237747192,0.06876341998577118
0.0625,0.044340260326862335,0.0,0.02446642704308033,0.0683203712105751
0.06299999999999994,0.044328998774290085,0.0006103515625,0.024198373779654503,0.0684288814663887
0.0635,0.044317714869976044,0.00091552734375,0.023922767490148544,0.06909016519784927
0.06399999999999995,0.044306010007858276,0.0,0.023722751066088676,0.06897057592868805
0.0645,0.044294323772192,0.0,0.023328837007284164,0.06840898841619492
0.06499999999999995,0.04428306967020035,0.0006103515625,0.02319701388478279,0.06864739209413528
0.0655,0.044271036982536316,0.00030517578125,0.02257702872157097,0.06811591237783432
0.06599999999999995,0.04425959289073944,0.0,0.022332657128572464,0.06860221177339554
0.0665,0.044248178601264954,0.00091552734375,0.022074265405535698,0.06727482378482819
0.06699999999999995,0.04423689842224121,0.0006103515625,0.021809449419379234,0.06854523718357086
0.0675,0.04422500357031822,0.00030517578125,0.02144099399447441,0.06890980899333954
0.06799999999999995,0.04421345889568329,0.0,0.021207056939601898,0.06836654990911484
0.0685,0.04420216754078865,0.0,0.020743394270539284,0.06837872415781021
0.06899999999999995,0.04419024661183357,0.0,0.020442569628357887,0.06822873651981354
0.0695,0.04417872801423073,0.0006103515625,0.020351693034172058,0.06803806871175766
0.06999999999999995,0.04416707903146744,0.00030517578125,0.01944739930331707,0.06830064207315445
0.07050000000000001,0.04415564611554146,0.00091552734375,0.019346017390489578,0.06803657114505768
0.07099999999999995,0.04414390027523041,0.00030517578125,0.019073817878961563,0.06799478828907013
0.07150000000000001,0.04413265362381935,0.0,0.01894555427134037,0.06811079382896423
0.07199999999999995,0.044120848178863525,0.00030517578125,0.018336739391088486,0.06815704703330994
0.07250000000000001,0.044109247624874115,0.00091552734375,0.018629705533385277,0.06877150386571884
0.07299999999999995,0.04409776255488396,0.0006103515625,0.018258899450302124,0.06802601367235184
0.07350000000000001,0.044086288660764694,-0.00030517578125,0.01784694939851761,0.06855928897857666
0.07399999999999995,0.04407445713877678,0.0006103515625,0.01778430864214897,0.06809771806001663
0.07450000000000001,0.044063083827495575,0.0006103515625,0.017601748928427696,0.06850388646125793
0.07499999999999996,0.04405132681131363,0.00091552734375,0.017000598832964897,0.06817136704921722
0.07550000000000001,0.044039610773324966,0.0006103515625,0.016881151124835014,0.06808163225650787
0.07599999999999996,0.04402817040681839,0.00030517578125,0.01659819297492504,0.06824812293052673
0.07650000000000001,0.044016528874635696,0.0006103515625,0.016701065003871918,0.06793095171451569
0.07699999999999996,0.04400501400232315,0.00030517578125,0.01638009399175644,0.06829831004142761
0.07750000000000001,0.043993402272462845,0.00091552734375,0.01589435711503029,0.06839807331562042
0.07799999999999996,0.043982043862342834,0.00030517578125,0.015744270756840706,0.06903138756752014
0.07850000000000001,0.04396989569067955,0.0,0.01511826366186142,0.0681765228509903
0.07899999999999996,0.043958880007267,0.00030517578125,0.015458856709301472,0.06701332330703735
0.07950000000000002,0.04394705221056938,0.00030517578125,0.01483776606619358,0.06778112798929214
0.07999999999999996,0.04393552988767624,0.0006103515625,0.014912039041519165,0.06834687292575836
0.08050000000000002,0.04392380267381668,0.00030517578125,0.014223734848201275,0.06781788170337677
0.08099999999999996,0.043912336230278015,0.00091552734375,0.01450177188962698,0.06779862940311432
0.08150000000000002,0.04390089958906174,0.0006103515625,0.014147044159471989,0.0678040161728859
0.08199999999999996,0.04388921707868576,0.00030517578125,0.013641026802361012,0.06789904087781906
0.08250000000000002,0.043877746909856796,0.0006103515625,0.013755823485553265,0.06738650798797607
0.08299999999999996,0.04386613517999649,0.00091552734375,0.013831338845193386,0.06780599057674408
0.08350000000000002,0.04385456442832947,0.00091552734375,0.013523048721253872,0.06894902884960175
0.08399999999999996,0.04384280741214752,-0.00030517578125,0.013076214119791985,0.06864681094884872
0.08450000000000002,0.04383135586977005,0.0006103515625,0.013291259296238422,0.06863129138946533
0.08499999999999996,0.04381967708468437,0.00091552734375,0.012695020996034145,0.0680985152721405
0.08550000000000002,0.04380851611495018,-0.0006103515625,0.012654864229261875,0.06833573430776596
0.08599999999999997,0.04379647597670555,0.00030517578125,0.012530643492937088,0.06710886210203171
0.08650000000000002,0.04378539323806763,0.0006103515625,0.012781246565282345,0.06820252537727356
0.08699999999999997,0.043773628771305084,0.0006103515625,0.012094296514987946,0.0681288093328476
0.08750000000000002,0.04376167804002762,0.0006103515625,0.012358752079308033,0.06863296777009964
0.08799999999999997,0.04375026747584343,0.00091552734375,0.011829798109829426,0.06802322715520859
0.08850000000000002,0.043738748878240585,0.0,0.01163517776876688,0.06744975596666336
0.08899999999999997,0.04372693598270416,0.0006103515625,0.01148318499326706,0.06810826063156128
0.08950000000000002,0.04371551051735878,0.00030517578125,0.01127301063388586,0.0677793100476265
0.08999999999999997,0.04370410367846489,0.001220703125,0.011015273630619049,0.06812676787376404
0.09050000000000002,0.04369228705763817,0.0006103515625,0.010418378747999668,0.06846979260444641
0.09099999999999997,0.04368103668093681,0.0,0.011431398801505566,0.06833943724632263
0.09150000000000003,0.043668996542692184,0.00091552734375,0.010863658972084522,0.06745078414678574
0.09199999999999997,0.043657559901475906,0.00030517578125,0.010400858707726002,0.06757983565330505
0.09250000000000003,0.043645840138196945,0.00030517578125,0.010272634215652943,0.06768239289522171
0.09299999999999997,0.043634675443172455,0.0006103515625,0.010079112835228443,0.06805706024169922
0.09350000000000003,0.04362281784415245,0.0006103515625,0.010105553083121777,0.06730576604604721
0.09399999999999997,0.04361150041222572,0.00091552734375,0.009952891618013382,0.06861617416143417
0.09450000000000003,0.04359961301088333,0.0006103515625,0.009543049149215221,0.06912562251091003
0.09499999999999997,0.0435878224670887,0.00030517578125,0.009457306005060673,0.06772755086421967
0.09550000000000003,0.043576426804065704,0.0006103515625,0.0091021079570055,0.06757707893848419
0.09599999999999997,0.043564535677433014,0.00030517578125,0.009589343331754208,0.06808581948280334
0.09650000000000003,0.043553292751312256,0.0006103515625,0.009220241568982601,0.06801476329565048
0.09699999999999998,0.04354161024093628,0.0006103515625,0.008514384739100933,0.06803852319717407
0.09750000000000003,0.04353023320436478,0.0006103515625,0.00867684930562973,0.0672411173582077
0.09799999999999998,0.043518539518117905,0.0006103515625,0.008530336432158947,0.06803541630506516
0.09850000000000003,0.043507013469934464,0.0006103515625,0.008477495051920414,0.06859610974788666
0.09899999999999998,0.04349537938833237,0.00091552734375,0.008350911550223827,0.06752189993858337
0.09950000000000003,0.04348412901163101,0.00030517578125,0.008466237224638462,0.06838969886302948
0.09999999999999998,0.04347224161028862,0.00030517578125,0.007829044945538044,0.06757655739784241
0.10050000000000003,0.043460894376039505,0.00030517578125,0.007686064578592777,0.06866705417633057
0.10099999999999998,0.04344929754734039,0.0006103515625,0.007745173294097185,0.06717285513877869
0.10150000000000003,0.04343774542212486,0.00030517578125,0.007600955665111542,0.06796672940254211
0.10199999999999998,0.043426141142845154,0.00091552734375,0.007237921003252268,0.06794116646051407
0.10250000000000004,0.04341438040137291,0.00030517578125,0.007153838407248259,0.0677654966711998
0.10299999999999998,0.043403301388025284,0.00091552734375,0.00744149275124073,0.06871842592954636
0.10350000000000004,0.04339108616113663,0.0,0.006981422193348408,0.067842498421669
0.10399999999999998,0.043379928916692734,0.0006103515625,0.006878099869936705,0.06800844520330429
0.10450000000000004,0.04336816072463989,0.00030517578125,0.006751562003046274,0.06695184856653214
