Time [s],Lmtc [m],STIM [ ],fGM [N],fGL [N]
0.0,0.04600659757852554,0.0006103515625,0.06999825686216354,0.061935413628816605
0.0004999999999999449,0.0460067018866539,0.00030517578125,0.07025019079446793,0.06262290477752686
0.0010000000000000009,0.046006523072719574,0.00030517578125,0.07044398039579391,0.06256192177534103
0.0014999999999999458,0.04600619897246361,0.00030517578125,0.06997370719909668,0.06175868585705757
0.0020000000000000018,0.04600650072097778,0.0006103515625,0.07027112692594528,0.06236962229013443
0.0024999999999999467,0.04600624740123749,0.00091552734375,0.07025560736656189,0.06167275831103325
0.0030000000000000027,0.04600668326020241,0.00030517578125,0.07012797147035599,0.06288961321115494
0.0034999999999999476,0.04600659757852554,0.00030517578125,0.0698532909154892,0.06152825430035591
0.0040000000000000036,0.04600657895207405,0.0,0.07038991898298264,0.06263335049152374
0.0044999999999999485,0.04600667580962181,0.0006103515625,0.07016671448945999,0.06265461444854736
0.0050000000000000044,0.04600661247968674,0.0,0.06970030069351196,0.061397671699523926
0.005499999999999949,0.0460067093372345,0.00030517578125,0.070093534886837,0.0628708004951477
0.006000000000000005,0.04600634053349495,0.0,0.0691235214471817,0.06118892505764961
0.00649999999999995,0.04600607976317406,0.0006103515625,0.06882856041193008,0.062215179204940796
0.007000000000000006,0.04600556567311287,0.00030517578125,0.06737163662910461,0.06212534382939339
0.007499999999999951,0.04600413143634796,0.00030517578125,0.06563630700111389,0.06192057207226753
0.008000000000000007,0.046002089977264404,0.00030517578125,0.06214796379208565,0.062327172607183456
0.008499999999999952,0.045997925102710724,0.00030517578125,0.058833684772253036,0.061735816299915314
0.009000000000000008,0.04599253833293915,0.0006103515625,0.05485771596431732,0.06288667768239975
0.009499999999999953,0.04598517715930939,0.0006103515625,0.050989069044589996,0.06258535385131836
0.010000000000000009,0.04597606137394905,0.0006103515625,0.04799899458885193,0.061497192829847336
0.010499999999999954,0.0459662489593029,0.0,0.04509046673774719,0.0628010481595993
0.01100000000000001,0.04595430940389633,0.0006103515625,0.042258597910404205,0.06128318980336189
0.011499999999999955,0.04594188928604126,0.001220703125,0.04024498164653778,0.061889126896858215
0.01200000000000001,0.045929767191410065,0.00030517578125,0.03892386704683304,0.062342319637537
0.012499999999999956,0.045916423201560974,0.0,0.03680757060647011,0.06227438896894455
0.013000000000000012,0.0459035262465477,0.00030517578125,0.035515572875738144,0.06287708878517151
0.013499999999999956,0.04588976129889488,0.0006103515625,0.03523796796798706,0.06161218881607056
0.014000000000000012,0.045876920223236084,0.0006103515625,0.03445275500416756,0.06297232955694199
0.014499999999999957,0.04586357995867729,0.00091552734375,0.033811844885349274,0.061526376754045486
0.015000000000000013,0.04585031047463417,0.0,0.03308572620153427,0.06154442951083183
0.015499999999999958,0.04583768546581268,-0.00030517578125,0.032527681440114975,0.062002234160900116
0.016000000000000014,0.04582415521144867,0.0006103515625,0.03228318318724632,0.060588281601667404
0.01649999999999996,0.045811500400304794,-0.00030517578125,0.03194807842373848,0.06123216822743416
0.017000000000000015,0.04579863324761391,0.00091552734375,0.031342171132564545,0.061034880578517914
0.01749999999999996,0.045785482972860336,0.00030517578125,0.030976448208093643,0.06167622283101082
0.018000000000000016,0.04577290266752243,0.00030517578125,0.03069235011935234,0.06150141730904579
0.01849999999999996,0.04576027765870094,0.00030517578125,0.030667277052998543,0.0605461522936821
0.019000000000000017,0.0457475446164608,0.00091552734375,0.03101084753870964,0.06188206002116203
0.019499999999999962,0.0457347147166729,0.0006103515625,0.02943011187016964,0.06133899837732315
0.020000000000000018,0.04572222754359245,0.0,0.02938893809914589,0.06119014695286751
0.020499999999999963,0.04570940509438515,0.0006103515625,0.028875786811113358,0.062092531472444534
0.02100000000000002,0.04569648206233978,0.0006103515625,0.028482487425208092,0.06148765981197357
0.021499999999999964,0.045683927834033966,0.00091552734375,0.02839626744389534,0.06023730710148811
0.02200000000000002,0.045671142637729645,0.00091552734375,0.027827763929963112,0.06128000095486641
0.022499999999999964,0.04565836489200592,0.00030517578125,0.02751345746219158,0.06142916530370712
0.02300000000000002,0.045645732432603836,0.00030517578125,0.02716304361820221,0.06135709211230278
0.023499999999999965,0.04563271254301071,-0.00030517578125,0.027221044525504112,0.06048091873526573
0.02400000000000002,0.04562046751379967,0.0006103515625,0.026891034096479416,0.061576806008815765
0.024499999999999966,0.04560740292072296,0.0006103515625,0.026601841673254967,0.061409059911966324
0.025000000000000022,0.04559466242790222,0.0006103515625,0.02652856893837452,0.06138794124126434
0.025499999999999967,0.04558221623301506,0.0,0.02641949988901615,0.06169229745864868
0.026000000000000023,0.04556892812252045,0.00030517578125,0.025729741901159286,0.06194259226322174
0.026499999999999968,0.04555637389421463,0.00030517578125,0.025740688666701317,0.06180449202656746
0.027000000000000024,0.045543767511844635,0.0006103515625,0.02586228772997856,0.06169189512729645
0.02749999999999997,0.04553082957863808,0.00030517578125,0.025393620133399963,0.06177937239408493
0.028000000000000025,0.04551823437213898,-0.00030517578125,0.024943456053733826,0.06184221804141998
0.02849999999999997,0.04550543054938316,0.00030517578125,0.024976305663585663,0.06104766204953194
0.029000000000000026,0.04549281671643257,0.00091552734375,0.024750951677560806,0.06288407742977142
0.02949999999999997,0.04547988995909691,0.00030517578125,0.02437664568424225,0.06196427345275879
0.030000000000000027,0.04546721279621124,0.0006103515625,0.023836635053157806,0.06169474869966507
0.03049999999999997,0.04545457661151886,0.00091552734375,0.023874200880527496,0.06185315549373627
0.031000000000000028,0.04544157162308693,0.0006103515625,0.024145780131220818,0.0611472986638546
0.03149999999999997,0.04542906954884529,0.0,0.023824626579880714,0.06194878742098808
0.03200000000000003,0.04541623592376709,0.00030517578125,0.02358848787844181,0.061443742364645004
0.03249999999999997,0.045403480529785156,0.0006103515625,0.02355010248720646,0.0615205243229866
0.03300000000000003,0.04539036750793457,0.00091552734375,0.02341780625283718,0.06247318908572197
0.033499999999999974,0.045377716422080994,0.00030517578125,0.02281910367310047,0.06158521771430969
0.03400000000000003,0.04536550119519234,0.0,0.023041587322950363,0.061871375888586044
0.034499999999999975,0.045352257788181305,0.00030517578125,0.02272002585232258,0.06159564480185509
0.03500000000000003,0.04533970728516579,0.00030517578125,0.022392334416508675,0.061632849276065826
0.035499999999999976,0.04532698169350624,0.00030517578125,0.022534802556037903,0.0610392726957798
0.03600000000000003,0.04531422629952431,0.00030517578125,0.021927326917648315,0.061704371124506
0.03649999999999998,0.04530131071805954,0.0006103515625,0.021919209510087967,0.061053186655044556
0.03700000000000003,0.04528827220201492,-0.0006103515625,0.022289948537945747,0.06047455966472626
0.03749999999999998,0.04527590796351433,0.0006103515625,0.021571151912212372,0.06178416684269905
0.038000000000000034,0.04526308923959732,0.0,0.021313605830073357,0.061212245374917984
0.03849999999999998,0.04525041580200195,0.0006103515625,0.021319087594747543,0.06218859925866127
0.039000000000000035,0.04523792862892151,0.0006103515625,0.020978232845664024,0.0615081749856472
0.03949999999999998,0.045224763453006744,0.00091552734375,0.02075311541557312,0.06098714470863342
0.040000000000000036,0.04521236568689346,0.0006103515625,0.020733073353767395,0.0623774379491806
0.04049999999999998,0.045199599117040634,0.00030517578125,0.02112475037574768,0.06126484274864197
0.041000000000000036,0.045186351984739304,0.00030517578125,0.020364176481962204,0.06238238140940666
0.04149999999999998,0.04517394304275513,-0.00030517578125,0.020308999344706535,0.06191691756248474
0.04200000000000004,0.04516102373600006,0.0,0.0202125646173954,0.06211194023489952
0.04249999999999998,0.04514848813414574,0.00030517578125,0.01957453414797783,0.06242828071117401
0.04300000000000004,0.04513571411371231,0.0,0.01984436996281147,0.0609251894056797
0.04349999999999998,0.04512295871973038,0.00030517578125,0.02016286551952362,0.06175583228468895
0.04400000000000004,0.045110270380973816,0.0006103515625,0.01946396566927433,0.06143292039632797
0.044499999999999984,0.045097287744283676,0.00091552734375,0.01913345605134964,0.06189800053834915
0.04500000000000004,0.045084647834300995,0.00030517578125,0.019124196842312813,0.062353555113077164
0.045499999999999985,0.04507172107696533,0.00030517578125,0.019140535965561867,0.061193227767944336
0.04600000000000004,0.045058723539114,0.0006103515625,0.019040439277887344,0.06245420500636101
0.046499999999999986,0.045046061277389526,0.00030517578125,0.01853516697883606,0.06131654232740402
0.04700000000000004,0.04503319784998894,0.00030517578125,0.018790043890476227,0.0613335557281971
0.04749999999999999,0.045020654797554016,0.0006103515625,0.018600817769765854,0.06230340525507927
0.04800000000000004,0.045007336884737015,0.0006103515625,0.01858135126531124,0.06102488562464714
0.04849999999999999,0.044994741678237915,0.00091552734375,0.01879921555519104,0.062272898852825165
0.049000000000000044,0.04498249292373657,0.0006103515625,0.01847941055893898,0.062077365815639496
0.04949999999999999,0.04496946558356285,0.00030517578125,0.01862998493015766,0.0612916573882103
0.050000000000000044,0.044957153499126434,0.00030517578125,0.01788613386452198,0.061697881668806076
0.05049999999999999,0.04494420439004898,-0.00030517578125,0.018172182142734528,0.061057139188051224
0.051000000000000045,0.04493150860071182,0.0006103515625,0.018066873773932457,0.061271607875823975
0.05149999999999999,0.04491893947124481,0.0006103515625,0.017536267638206482,0.06108137220144272
0.052000000000000046,0.04490591585636139,0.00091552734375,0.017813382670283318,0.061003800481557846
0.05249999999999999,0.04489348083734512,0.00091552734375,0.01716461591422558,0.06095924973487854
0.05300000000000005,0.04488062486052513,0.0006103515625,0.017330829054117203,0.060964103788137436
0.05349999999999999,0.044867970049381256,0.0006103515625,0.017093798145651817,0.06160547211766243
0.05400000000000005,0.04485561326146126,0.00091552734375,0.01709279976785183,0.06125859543681145
0.05449999999999999,0.04484258592128754,0.0006103515625,0.01724269799888134,0.06082030013203621
0.05500000000000005,0.04482985660433769,0.0006103515625,0.016482984647154808,0.061866793781518936
0.055499999999999994,0.04481680318713188,0.0006103515625,0.016562307253479958,0.06075119599699974
0.05600000000000005,0.044804301112890244,0.0006103515625,0.016087964177131653,0.06024305522441864
0.056499999999999995,0.04479169845581055,0.0,0.015489303506910801,0.061484917998313904
0.05700000000000005,0.044778913259506226,0.00030517578125,0.015929071232676506,0.06090402975678444
0.057499999999999996,0.04476632922887802,0.00030517578125,0.015709761530160904,0.06115574389696121
0.05800000000000005,0.04475321248173714,0.00030517578125,0.015384207479655743,0.06077585369348526
0.058499999999999996,0.04474088177084923,0.0006103515625,0.015284215100109577,0.06082729995250702
0.05900000000000005,0.044728003442287445,0.00030517578125,0.014668740332126617,0.06090499088168144
0.0595,0.04471495375037193,0.0,0.014395915903151035,0.060897212475538254
0.06000000000000005,0.04470278322696686,0.0,0.01418722327798605,0.061995696276426315
0.0605,0.04468980431556702,0.00030517578125,0.013799214735627174,0.060856521129608154
0.061000000000000054,0.04467722028493881,0.0006103515625,0.013686603866517544,0.06222376599907875
0.0615,0.04466405138373375,0.00091552734375,0.013232077471911907,0.06071818247437477
0.062000000000000055,0.04465183988213539,0.00030517578125,0.013694495894014835,0.06064100190997124
0.0625,0.044638875871896744,0.00030517578125,0.01299744937568903,0.06124380603432655
0.06299999999999994,0.044625941663980484,-0.00030517578125,0.012443264946341515,0.060769759118556976
0.0635,0.04461335763335228,0.0,0.012594752945005894,0.061672646552324295
0.06399999999999995,0.04460060968995094,0.00091552734375,0.012255915440618992,0.06203341856598854
0.0645,0.04458753392100334,0.0,0.012086696922779083,0.0605456605553627
0.06499999999999995,0.04457506537437439,0.00030517578125,0.011537996120750904,0.06110759451985359
0.0655,0.0445622093975544,0.00030517578125,0.011851014569401741,0.060786109417676926
0.06599999999999995,0.044550057500600815,-0.00030517578125,0.011308414861559868,0.0614592581987381
0.0665,0.0445367656648159,0.0,0.01099062617868185,0.0607464499771595
0.06699999999999995,0.04452420771121979,0.0006103515625,0.011013217270374298,0.06119789928197861
0.0675,0.044511351734399796,0.00030517578125,0.010725807398557663,0.060613323003053665
0.06799999999999995,0.04449848085641861,0.0006103515625,0.010393093340098858,0.06073089689016342
0.0685,0.04448603466153145,0.0006103515625,0.010269050486385822,0.06150748208165169
0.06899999999999995,0.044473204761743546,0.00030517578125,0.009738012216985226,0.06098717451095581
0.0695,0.044460464268922806,0.0006103515625,0.00964446272701025,0.0612691268324852
0.06999999999999995,0.044447802007198334,0.00030517578125,0.009344140067696571,0.06136642023921013
0.07050000000000001,0.04443499445915222,0.0006103515625,0.008989015594124794,0.060988008975982666
0.07099999999999995,0.04442225396633148,0.0006103515625,0.008632047101855278,0.06125276908278465
0.07150000000000001,0.044409263879060745,0.0006103515625,0.008716394193470478,0.060047198086977005
0.07199999999999995,0.044396765530109406,0.0006103515625,0.0086311474442482,0.061359062790870667
0.07250000000000001,0.04438389837741852,0.00030517578125,0.007945043034851551,0.06085754930973053
0.07299999999999995,0.04437118396162987,0.0006103515625,0.007660318166017532,0.06141572818160057
0.07350000000000001,0.04435863345861435,-0.00030517578125,0.007629915606230497,0.06115233525633812
0.07399999999999995,0.04434569180011749,0.00091552734375,0.007700115442276001,0.06133361905813217
0.07450000000000001,0.044332925230264664,0.00030517578125,0.00745436130091548,0.0612584725022316
0.07499999999999996,0.044320397078990936,0.00030517578125,0.00666925311088562,0.06101677939295769
0.07550000000000001,0.04430775344371796,0.00030517578125,0.006908048875629902,0.06203431636095047
0.07599999999999996,0.04429488629102707,0.00091552734375,0.006594717502593994,0.06033550947904587
0.07650000000000001,0.04428178817033768,0.00030517578125,0.006222974043339491,0.060765571892261505
0.07699999999999996,0.044269219040870667,0.00030517578125,0.006435041781514883,0.061017755419015884
0.07750000000000001,0.04425601661205292,0.00030517578125,0.006202306132763624,0.06056306138634682
0.07799999999999996,0.04424325004220009,0.00091552734375,0.005754150915890932,0.06125270575284958
0.07850000000000001,0.04423074051737785,0.00091552734375,0.0056563131511211395,0.06121774762868881
0.07899999999999996,0.04421798512339592,0.0006103515625,0.0052130986005067825,0.061811357736587524
0.07950000000000002,0.04420505836606026,0.00030517578125,0.005166936200112104,0.06205565482378006
0.07999999999999996,0.0441923514008522,0.00091552734375,0.005281447432935238,0.06073659285902977
0.08050000000000002,0.04417969286441803,-0.00030517578125,0.005559092853218317,0.06190175563097
0.08099999999999996,0.04416682571172714,0.00030517578125,0.005224958993494511,0.061371106654405594
0.08150000000000002,0.04415416717529297,0.00030517578125,0.005284625105559826,0.06150221824645996
0.08199999999999996,0.0441419817507267,0.0006103515625,0.005269112065434456,0.061826542019844055
0.08250000000000002,0.04412856698036194,0.00030517578125,0.004830001387745142,0.060500264167785645
0.08299999999999996,0.04411579668521881,0.0,0.004840127192437649,0.06068645790219307
0.08350000000000002,0.04410327598452568,0.00091552734375,0.004222603049129248,0.06098099797964096
0.08399999999999996,0.04409056529402733,0.00091552734375,0.00483324471861124,0.06171337142586708
0.08450000000000002,0.04407764598727226,0.0,0.00475902808830142,0.061276670545339584
0.08499999999999996,0.04406486079096794,0.0006103515625,0.004409127868711948,0.06062963232398033
0.08550000000000002,0.04405248910188675,0.0006103515625,0.004588133189827204,0.06230369955301285
0.08599999999999997,0.044039539992809296,0.0,0.0036285114474594593,0.061122361570596695
0.08650000000000002,0.04402661696076393,0.00030517578125,0.003780290251597762,0.06109205260872841
0.08699999999999997,0.04401439428329468,0.00030517578125,0.0035930611193180084,0.06104228273034096
0.08750000000000002,0.044001203030347824,0.00091552734375,0.004230613354593515,0.06101003661751747
0.08799999999999997,0.04398857802152634,0.00091552734375,0.003997825086116791,0.062006138265132904
0.08850000000000002,0.043976034969091415,0.0006103515625,0.003698765765875578,0.060964878648519516
0.08899999999999997,0.04396309331059456,0.0006103515625,0.003776964033022523,0.06121726334095001
0.08950000000000002,0.04395027086138725,0.0006103515625,0.003145944094285369,0.061863262206315994
0.08999999999999997,0.043937407433986664,0.00030517578125,0.00321213249117136,0.06101095676422119
0.09050000000000002,0.04392522946000099,-0.00030517578125,0.003012081841006875,0.06231085956096649
0.09099999999999997,0.04391222819685936,0.00030517578125,0.0030342775862663984,0.06174950674176216
0.09150000000000003,0.04389959201216698,0.00030517578125,0.0031345458701252937,0.061545901000499725
0.09199999999999997,0.043886616826057434,0.0006103515625,0.002852161880582571,0.06187659129500389
0.09250000000000003,0.043874021619558334,0.00030517578125,0.0028639077208936214,0.061216600239276886
0.09299999999999997,0.04386133700609207,0.0006103515625,0.0027130243834108114,0.061361078172922134
0.09350000000000003,0.04384838789701462,0.0006103515625,0.0027015043888241053,0.06113871559500694
0.09399999999999997,0.04383578896522522,0.0006103515625,0.0029659259598702192,0.06187719479203224
0.09450000000000003,0.04382244870066643,0.00030517578125,0.0024839029647409916,0.061606474220752716
0.09499999999999997,0.043810173869132996,0.00030517578125,0.002958341734483838,0.06062011793255806
0.09550000000000003,0.04379749298095703,0.0006103515625,0.002603595843538642,0.06179848313331604
0.09599999999999997,0.043784432113170624,0.00030517578125,0.0023649607319384813,0.06064463406801224
0.09650000000000003,0.04377209395170212,0.0006103515625,0.0027293357998132706,0.06124319136142731
0.09699999999999998,0.0437590517103672,0.00091552734375,0.0020257344003766775,0.06093664839863777
0.09750000000000003,0.043746501207351685,0.00030517578125,0.002486509270966053,0.06122743710875511
0.09799999999999998,0.04373371601104736,0.0,0.0022869801614433527,0.06074069067835808
0.09850000000000003,0.043720971792936325,0.0006103515625,0.0020501906983554363,0.06056200712919235
0.09899999999999998,0.043708618730306625,0.00091552734375,0.0016302053118124604,0.06118639558553696
0.09950000000000003,0.04369531199336052,0.0006103515625,0.001511477050371468,0.06143592670559883
0.09999999999999998,0.04368284344673157,0.00030517578125,0.0015092584071680903,0.060891393572092056
0.10050000000000003,0.04367012903094292,0.0006103515625,0.0019095942843705416,0.061136674135923386
0.10099999999999998,0.04365735501050949,0.00091552734375,0.0012433023657649755,0.06191319599747658
0.10150000000000003,0.043644361197948456,0.0006103515625,0.0017732951091602445,0.061529625207185745
0.10199999999999998,0.04363183304667473,0.0006103515625,0.001439385232515633,0.06112700700759888
0.10250000000000004,0.04361893981695175,0.00030517578125,0.0014641808811575174,0.061426691710948944
0.10299999999999998,0.04360601678490639,0.00030517578125,0.0009023041930049658,0.061027608811855316
