Time [s],Lmtc [m],STIM [ ],fGM [N],fGL [N]
0.0,0.04600673168897629,0.00091552734375,0.06811249256134033,0.062255218625068665
0.0004999999999999449,0.0460064522922039,0.0006103515625,0.06768965721130371,0.06087788939476013
0.0010000000000000009,0.04600648581981659,0.00030517578125,0.06808960437774658,0.06209245324134827
0.0014999999999999458,0.04600665718317032,0.0006103515625,0.06785891205072403,0.06148979812860489
0.0020000000000000018,0.04600657522678375,0.0,0.06808178126811981,0.061948053538799286
0.0024999999999999467,0.04600664973258972,0.00030517578125,0.06758879125118256,0.06220194697380066
0.0030000000000000027,0.04600613936781883,0.00030517578125,0.06803744286298752,0.06127911061048508
0.0034999999999999476,0.04600648954510689,0.00030517578125,0.06800462305545807,0.06239030882716179
0.0040000000000000036,0.046006571501493454,0.00030517578125,0.06805532425642014,0.06104059889912605
0.0044999999999999485,0.04600624367594719,0.0006103515625,0.06816315650939941,0.062197573482990265
0.0050000000000000044,0.04600650817155838,0.001220703125,0.0682816207408905,0.061781272292137146
0.005499999999999949,0.04600641876459122,0.00030517578125,0.06781156361103058,0.06204655021429062
0.006000000000000005,0.046006616204977036,0.00030517578125,0.06798519939184189,0.06229517236351967
0.00649999999999995,0.04600633680820465,0.00030517578125,0.06688304245471954,0.06201620027422905
0.007000000000000006,0.04600575938820839,0.00091552734375,0.06524884700775146,0.06164303794503212
0.007499999999999951,0.04600414261221886,0.0,0.0629522055387497,0.06075837463140488
0.008000000000000007,0.04600079357624054,0.0006103515625,0.05882849171757698,0.0614406019449234
0.008499999999999952,0.04599624499678612,0.0006103515625,0.05491851270198822,0.06275162100791931
0.009000000000000008,0.04598882049322128,0.00030517578125,0.049359723925590515,0.061757996678352356
0.009499999999999953,0.045979175716638565,0.0006103515625,0.04393302649259567,0.06214015558362007
0.010000000000000009,0.045966487377882004,0.00030517578125,0.03825153782963753,0.0619937889277935
0.010499999999999954,0.04595139995217323,0.00030517578125,0.03265902400016785,0.06167489290237427
0.01100000000000001,0.04593374580144882,0.00030517578125,0.027360793203115463,0.06266911327838898
0.011499999999999955,0.045913051813840866,0.00030517578125,0.023202091455459595,0.061364565044641495
0.01200000000000001,0.045889854431152344,0.00030517578125,0.019350405782461166,0.061439111828804016
0.012499999999999956,0.045864835381507874,0.00030517578125,0.015597342513501644,0.06165315583348274
0.013000000000000012,0.04583794251084328,0.0006103515625,0.013716442510485649,0.0613739937543869
0.013499999999999956,0.04580923169851303,0.0006103515625,0.011980226263403893,0.06214699521660805
0.014000000000000012,0.04577901214361191,0.0006103515625,0.010744462721049786,0.06052874028682709
0.014499999999999957,0.04574790596961975,0.00030517578125,0.009954995475709438,0.0612410306930542
0.015000000000000013,0.04571610689163208,0.00091552734375,0.009265425615012646,0.06245163083076477
0.015499999999999958,0.045683518052101135,0.0,0.009625515900552273,0.06098487600684166
0.016000000000000014,0.04565086215734482,0.0006103515625,0.009263090789318085,0.06137417256832123
0.01649999999999996,0.045617278665304184,0.00091552734375,0.00907834991812706,0.06102180480957031
0.017000000000000015,0.04558435082435608,0.0006103515625,0.009510928764939308,0.06112915650010109
0.01749999999999996,0.04555097594857216,0.0006103515625,0.009406086057424545,0.061158306896686554
0.018000000000000016,0.04551777243614197,0.0,0.009071809239685535,0.06113104149699211
0.01849999999999996,0.04548428952693939,0.00030517578125,0.009730661287903786,0.06076481193304062
0.019000000000000017,0.045450616627931595,0.0,0.009181931614875793,0.06055517494678497
0.019499999999999962,0.04541778564453125,0.0,0.008957558311522007,0.060707755386829376
0.020000000000000018,0.045384328812360764,0.0,0.008284307084977627,0.060586437582969666
0.020499999999999963,0.04535132274031639,0.00091552734375,0.008518967777490616,0.060996707528829575
0.02100000000000002,0.04531800001859665,0.00091552734375,0.0074521880596876144,0.061080124229192734
0.021499999999999964,0.04528476297855377,0.00030517578125,0.007030460983514786,0.06166897341609001
0.02200000000000002,0.04525154083967209,0.0006103515625,0.006522301118820906,0.060534629970788956
0.022499999999999964,0.04521854966878891,0.00030517578125,0.0056434571743011475,0.06176452711224556
0.02300000000000002,0.04518527910113335,0.0006103515625,0.005664210766553879,0.06143547222018242
0.023499999999999965,0.04515191912651062,0.00091552734375,0.0052280123345553875,0.06058617681264877
0.02400000000000002,0.045118559151887894,0.0006103515625,0.004183907527476549,0.061360377818346024
0.024499999999999966,0.04508505016565323,0.0,0.003952078986912966,0.06101043149828911
0.025000000000000022,0.045051805675029755,0.00030517578125,0.0038264524191617966,0.06138380616903305
0.025499999999999967,0.04501865431666374,0.00030517578125,0.002948000095784664,0.06156466156244278
0.026000000000000023,0.04498516023159027,0.0006103515625,0.0026982282288372517,0.060850970447063446
0.026499999999999968,0.04495193436741829,0.00030517578125,0.002657237695530057,0.06242313235998154
0.027000000000000024,0.04491863399744034,0.001220703125,0.0025754666421562433,0.060565415769815445
0.02749999999999997,0.044885385781526566,0.00030517578125,0.002073833253234625,0.060834161937236786
0.028000000000000025,0.044852323830127716,0.0,0.002117966301739216,0.06144589185714722
0.02849999999999997,0.04481881111860275,0.00030517578125,0.0020606715697795153,0.06158466264605522
0.029000000000000026,0.04478579759597778,0.0006103515625,0.0019226149888709188,0.06187930330634117
0.02949999999999997,0.04475241154432297,0.001220703125,0.0015173822175711393,0.0613180473446846
0.030000000000000027,0.044718947261571884,0.00030517578125,0.0021897039841860533,0.06088016554713249
0.03049999999999997,0.04468579217791557,0.00030517578125,0.002908330876380205,0.06124859303236008
0.031000000000000028,0.044652216136455536,0.0,0.002312395488843322,0.06149671599268913
0.03149999999999997,0.044619012624025345,0.00030517578125,0.0029046081472188234,0.06119387596845627
0.03200000000000003,0.0445856899023056,0.0,0.0030347872525453568,0.06138353422284126
0.03249999999999997,0.044552404433488846,-0.00030517578125,0.003475191770121455,0.0607416145503521
0.03300000000000003,0.04451915994286537,0.0006103515625,0.0034533964935690165,0.061231836676597595
0.033499999999999974,0.04448596388101578,0.0006103515625,0.0035959677770733833,0.06067848950624466
0.03400000000000003,0.04445302486419678,0.00030517578125,0.004081693943589926,0.06200940161943436
0.034499999999999975,0.04441925510764122,0.0006103515625,0.0035810950212180614,0.06143208220601082
0.03500000000000003,0.044386450201272964,0.0006103515625,0.004208164755254984,0.06117154657840729
0.035499999999999976,0.04435282200574875,0.0006103515625,0.004057057201862335,0.06132525950670242
0.03600000000000003,0.04431954771280289,0.00030517578125,0.0039045996963977814,0.060953620821237564
0.03649999999999998,0.04428650066256523,0.0006103515625,0.003631153143942356,0.061208102852106094
0.03700000000000003,0.044253021478652954,0.00091552734375,0.004220642149448395,0.06135190278291702
0.03749999999999998,0.04421995207667351,0.00030517578125,0.004371943883597851,0.06204131990671158
0.038000000000000034,0.04418642446398735,0.0006103515625,0.004057750571519136,0.06159912422299385
0.03849999999999998,0.0441536121070385,0.0,0.004122826270759106,0.06183860823512077
0.039000000000000035,0.04412040859460831,0.0,0.004016468301415443,0.06099777668714523
0.03949999999999998,0.04408681392669678,0.00030517578125,0.004316452890634537,0.0611291341483593
0.040000000000000036,0.04405362531542778,0.0006103515625,0.0041282810270786285,0.06203590705990791
0.04049999999999998,0.04402046650648117,0.0006103515625,0.003904270241037011,0.060557980090379715
0.041000000000000036,0.04398694634437561,0.0006103515625,0.0037160192150622606,0.061130817979574203
0.04149999999999998,0.04395391792058945,0.0006103515625,0.0034277336671948433,0.061374783515930176
0.04200000000000004,0.043920569121837616,0.0006103515625,0.003800947917625308,0.06083007901906967
0.04249999999999998,0.04388757795095444,0.00030517578125,0.003985259681940079,0.06222974881529808
0.04300000000000004,0.04385393485426903,0.0,0.0032814424484968185,0.060435257852077484
0.04349999999999998,0.04382089897990227,0.00030517578125,0.0037164022214710712,0.06237559765577316
0.04400000000000004,0.04378756880760193,0.00030517578125,0.0034956212621182203,0.06141209974884987
0.044499999999999984,0.04375406354665756,-0.00030517578125,0.0031368383206427097,0.06128152832388878
0.04500000000000004,0.04372119903564453,0.00030517578125,0.0034348100889474154,0.06202404573559761
0.045499999999999985,0.04368764907121658,0.0006103515625,0.002637437079101801,0.061516016721725464
0.04600000000000004,0.04365456476807594,0.0006103515625,0.0025386677589267492,0.06216711550951004
0.046499999999999986,0.04362112656235695,0.0006103515625,0.00245828740298748,0.06099124252796173
0.04700000000000004,0.043587930500507355,0.0006103515625,0.0025792543310672045,0.06173383444547653
0.04749999999999999,0.04355476796627045,0.00091552734375,0.0026804779190570116,0.06037728860974312
0.04800000000000004,0.04352109134197235,-0.00030517578125,0.0020414707250893116,0.06136399880051613
0.04849999999999999,0.0434880331158638,-0.00030517578125,0.0020363882649689913,0.06138026341795921
0.049000000000000044,0.04345444589853287,0.00030517578125,0.0018935122061520815,0.06144168600440025
0.04949999999999999,0.04342097416520119,0.0006103515625,0.0017182991141453385,0.06288033723831177
0.050000000000000044,0.04338832199573517,0.0,0.0012898714048787951,0.061254896223545074
0.05049999999999999,0.04335488751530647,0.00030517578125,0.0015997765585780144,0.06137946620583534
0.051000000000000045,0.043321724981069565,0.00030517578125,0.0012917433632537723,0.0611749067902565
0.05149999999999999,0.04328852891921997,0.0006103515625,0.000840360124129802,0.06106016784906387
0.052000000000000046,0.04325553774833679,0.0006103515625,0.0009939263109117746,0.06169816479086876
0.05249999999999999,0.043221935629844666,0.00030517578125,0.0008735362789593637,0.06104222685098648
0.05300000000000005,0.04318863898515701,0.0006103515625,0.00039406761061400175,0.06085404008626938
0.05349999999999999,0.043155644088983536,0.00030517578125,0.0002757525071501732,0.060880597680807114
0.05400000000000005,0.043122004717588425,0.0006103515625,0.00019956915639340878,0.0609542541205883
0.05449999999999999,0.04308868944644928,0.00030517578125,-7.499757339246571e-05,0.06123947724699974
0.05500000000000005,0.04305553436279297,0.00030517578125,0.00014117785030975938,0.06118762493133545
0.055499999999999994,0.04302245378494263,0.0006103515625,-0.0003453080717008561,0.06092701479792595
0.05600000000000005,0.04298899322748184,0.00030517578125,-0.0002558600972406566,0.06146092340350151
0.056499999999999995,0.04295559599995613,0.00030517578125,-0.0004692917864304036,0.06100939214229584
0.05700000000000005,0.04292280972003937,0.00030517578125,-0.0005884277634322643,0.061093468219041824
0.057499999999999996,0.04288920387625694,0.0006103515625,-0.0010643008863553405,0.061686985194683075
0.05800000000000005,0.04285586252808571,0.00030517578125,-0.0010835917200893164,0.06089722365140915
0.058499999999999996,0.04282286390662193,0.0006103515625,-0.0012754137860611081,0.061371367424726486
0.05900000000000005,0.04278925061225891,0.0,-0.0017694643465802073,0.0612698532640934
0.0595,0.04275617375969887,0.00030517578125,-0.0019522156799212098,0.06080789491534233
0.06000000000000005,0.04272265359759331,0.0006103515625,-0.0021276066545397043,0.06077675148844719
0.0605,0.042689595371484756,0.0006103515625,-0.002184197772294283,0.0620841346681118
0.061000000000000054,0.04265587776899338,0.00030517578125,-0.002373642986640334,0.06044090539216995
0.0615,0.042622603476047516,0.00030517578125,-0.0026423262897878885,0.060386013239622116
0.062000000000000055,0.042589690536260605,0.0006103515625,-0.002621510298922658,0.06112193316221237
0.0625,0.042556170374155045,0.00030517578125,-0.0026518383529037237,0.060982849448919296
0.06299999999999994,0.04252307862043381,0.0006103515625,-0.0033783167600631714,0.06158776581287384
0.0635,0.042489707469940186,0.00091552734375,-0.003146205563098192,0.060289088636636734
0.06399999999999995,0.04245654493570328,0.00030517578125,-0.00325748766772449,0.061669785529375076
0.0645,0.04242333397269249,0.00091552734375,-0.003436937229707837,0.060242265462875366
0.06499999999999995,0.04239027202129364,0.00030517578125,-0.0031828144565224648,0.05929481238126755
0.0655,0.04235750809311867,0.001220703125,-0.003146365750581026,0.06157242879271507
0.06599999999999995,0.042324766516685486,0.0006103515625,-0.0035510980524122715,0.060521967709064484
0.0665,0.04229282960295677,0.0,-0.003216891549527645,0.06102462485432625
0.06699999999999995,0.04226096719503403,0.0,-0.0021784063428640366,0.06091780588030815
0.0675,0.042230185121297836,0.0006103515625,-0.0017556400271132588,0.06032247841358185
0.06799999999999995,0.04220036789774895,0.0006103515625,-0.0007088732090778649,0.059684205800294876
0.0685,0.04217187315225601,0.00030517578125,1.0671948075469118e-05,0.06124885752797127
0.06899999999999995,0.042144861072301865,0.0006103515625,0.0005834289477206767,0.06099962070584297
0.0695,0.04211864992976189,0.00030517578125,0.0020368732511997223,0.059689316898584366
0.06999999999999995,0.04209494963288307,0.00030517578125,0.0030242190696299076,0.06119761988520622
0.07050000000000001,0.04207340627908707,0.0006103515625,0.004203373100608587,0.060536306351423264
0.07099999999999995,0.04205344617366791,0.0,0.005263817496597767,0.06081017479300499
0.07150000000000001,0.042036671191453934,0.0,0.006774254143238068,0.06102828308939934
0.07199999999999995,0.04202241078019142,0.0006103515625,0.007679701782763004,0.06044478714466095
0.07250000000000001,0.04201067239046097,0.00030517578125,0.009023618884384632,0.06140126660466194
0.07299999999999995,0.04200255125761032,-0.00030517578125,0.009922240860760212,0.059958431869745255
0.07350000000000001,0.041996635496616364,0.0006103515625,0.010618709027767181,0.06050868704915047
0.07399999999999995,0.04199402034282684,0.0006103515625,0.011721928603947163,0.06082361191511154
0.07450000000000001,0.0419938787817955,0.0,0.011730793863534927,0.06017349287867546
0.07499999999999996,0.04199643433094025,0.00030517578125,0.011980687268078327,0.06175537034869194
0.07550000000000001,0.04200075566768646,0.00091552734375,0.011638371273875237,0.061110589653253555
0.07599999999999996,0.04200619459152222,0.00091552734375,0.010354636237025261,0.05981247127056122
0.07650000000000001,0.04201317951083183,0.00091552734375,0.009295092895627022,0.060283858329057693
0.07699999999999996,0.04202049598097801,0.00091552734375,0.008540226146578789,0.060468144714832306
0.07750000000000001,0.04202821105718613,0.0006103515625,0.007336974609643221,0.061120081692934036
0.07799999999999996,0.04203588515520096,0.00091552734375,0.006166060455143452,0.06100631505250931
0.07850000000000001,0.04204368218779564,0.00030517578125,0.005789379123598337,0.06111438572406769
0.07899999999999996,0.0420512855052948,0.00030517578125,0.0052788956090807915,0.06144743040204048
0.07950000000000002,0.042058512568473816,0.00030517578125,0.005635115783661604,0.060526292771101
0.07999999999999996,0.04206639155745506,-0.00030517578125,0.00574483210220933,0.061387062072753906
0.08050000000000002,0.04207358881831169,0.00030517578125,0.005862095393240452,0.061187513172626495
0.08099999999999996,0.04208086058497429,0.0,0.006550422869622707,0.06054649502038956
0.08150000000000002,0.04208846762776375,0.00030517578125,0.006886010058224201,0.060913823544979095
0.08199999999999996,0.04209557920694351,0.00030517578125,0.007380344904959202,0.061378102749586105
0.08250000000000002,0.04210333153605461,0.0,0.007453096564859152,0.06156393885612488
0.08299999999999996,0.04211074858903885,0.00030517578125,0.007365583907812834,0.061439353972673416
0.08350000000000002,0.04211857169866562,0.0,0.008423390798270702,0.061711233109235764
0.08399999999999996,0.04212617129087448,0.00030517578125,0.008588054217398167,0.061816003173589706
0.08450000000000002,0.042133402079343796,0.0,0.008053014986217022,0.061500515788793564
0.08499999999999996,0.04214150831103325,0.00030517578125,0.008167235180735588,0.06182345375418663
0.08550000000000002,0.042148783802986145,0.00091552734375,0.008459029719233513,0.06098611280322075
0.08599999999999997,0.04215668886899948,0.0,0.00832732580602169,0.062017180025577545
0.08650000000000002,0.04216401278972626,0.00030517578125,0.008440308272838593,0.06068909913301468
0.08699999999999997,0.04217209294438362,0.00091552734375,0.008662411011755466,0.06135982647538185
0.08750000000000002,0.042179543524980545,0.00091552734375,0.008593566715717316,0.06152484565973282
0.08799999999999997,0.042186640202999115,0.00030517578125,0.008455764502286911,0.05991172790527344
0.08850000000000002,0.04219483211636543,0.00030517578125,0.009057543240487576,0.062268394976854324
0.08899999999999997,0.04220200330018997,0.0,0.00897868163883686,0.06042361631989479
0.08950000000000002,0.042209647595882416,0.00030517578125,0.009222069755196571,0.06126575544476509
0.08999999999999997,0.04221717640757561,0.00030517578125,0.008694611489772797,0.06177143007516861
0.09050000000000002,0.042224615812301636,0.0006103515625,0.009343045763671398,0.061331603676080704
0.09099999999999997,0.04223242402076721,0.00030517578125,0.009580830112099648,0.06183331087231636
0.09150000000000003,0.04224006086587906,0.0,0.009310816414654255,0.06131243333220482
0.09199999999999997,0.042247574776411057,0.00091552734375,0.009866500273346901,0.060996051877737045
0.09250000000000003,0.04225490987300873,0.0,0.01037630345672369,0.06039177626371384
0.09299999999999997,0.04226235672831535,0.0006103515625,0.010707948356866837,0.06045626103878021
0.09350000000000003,0.042269956320524216,0.00030517578125,0.011200405657291412,0.061167389154434204
0.09399999999999997,0.04227757826447487,0.0,0.01095101423561573,0.0615975446999073
0.09450000000000003,0.04228527843952179,0.00030517578125,0.011330557987093925,0.0609310008585453
0.09499999999999997,0.04229285195469856,0.0,0.0118400938808918,0.060543667525053024
0.09550000000000003,0.042300205677747726,0.0006103515625,0.01220172829926014,0.061377257108688354
0.09599999999999997,0.042308058589696884,0.00030517578125,0.012280653230845928,0.060190021991729736
0.09650000000000003,0.04231545701622963,0.0006103515625,0.012172108516097069,0.06085793673992157
0.09699999999999998,0.04232319816946983,0.0006103515625,0.012932817451655865,0.06122314929962158
0.09750000000000003,0.0423307791352272,0.0,0.012762020342051983,0.06149713695049286
0.09799999999999998,0.042338501662015915,-0.00030517578125,0.012782002799212933,0.06153238192200661
0.09850000000000003,0.04234639182686806,0.0,0.012959004379808903,0.06089514493942261
0.09899999999999998,0.04235352948307991,0.0006103515625,0.013190807774662971,0.06097731366753578
0.09950000000000003,0.04236103594303131,0.0,0.013363875448703766,0.06050386279821396
0.09999999999999998,0.042368773370981216,0.0,0.013239027000963688,0.060560066252946854
0.10050000000000003,0.04237651824951172,0.0,0.014043926261365414,0.06122993305325508
0.10099999999999998,0.04238386079668999,0.00030517578125,0.013273478485643864,0.06172005832195282
0.10150000000000003,0.04239135980606079,0.00091552734375,0.013560590334236622,0.06104318052530289
0.10199999999999998,0.04239949211478233,0.0006103515625,0.013713819906115532,0.06147945299744606
0.10250000000000004,0.04240656644105911,0.00030517578125,0.013493222184479237,0.060442764312028885
0.10299999999999998,0.04241453856229782,0.0,0.013687270693480968,0.06097345054149628
0.10350000000000004,0.042422108352184296,0.0,0.013755333609879017,0.06139815226197243
