Time [s],Lmtc [m],STIM [ ],fGM [N],fGL [N]
0.0,0.0460064634680748,0.00030517578125,0.06974253058433533,0.06237798556685448
0.0004999999999999449,0.04600656032562256,0.0,0.06970896571874619,0.06187161058187485
0.0010000000000000009,0.0460067093372345,0.00030517578125,0.06970573216676712,0.06202538311481476
0.0014999999999999458,0.04600618779659271,0.0,0.06978636234998703,0.06192363426089287
0.0020000000000000018,0.04600660502910614,0.0006103515625,0.06975767761468887,0.062318023294210434
0.0024999999999999467,0.04600637033581734,0.0,0.06972081959247589,0.06127317249774933
0.0030000000000000027,0.04600658640265465,0.0006103515625,0.07000304013490677,0.06193023547530174
0.0034999999999999476,0.04600667953491211,0.0006103515625,0.06977249681949615,0.06164713203907013
0.0040000000000000036,0.046006347984075546,0.00030517578125,0.06977001577615738,0.06096857041120529
0.0044999999999999485,0.04600668326020241,0.00091552734375,0.06967387348413467,0.061841536313295364
0.0050000000000000044,0.04600667208433151,0.0006103515625,0.0696205347776413,0.06121538579463959
0.005499999999999949,0.04600664600729942,0.00030517578125,0.06965522468090057,0.062271326780319214
0.006000000000000005,0.04600631445646286,-0.00030517578125,0.06906025111675262,0.06092379614710808
0.00649999999999995,0.046006400138139725,0.00030517578125,0.06930309534072876,0.062098000198602676
0.007000000000000006,0.04600590094923973,0.0006103515625,0.06830951571464539,0.06194759160280228
0.007499999999999951,0.04600536823272705,0.0006103515625,0.0665312111377716,0.0622771680355072
0.008000000000000007,0.04600389301776886,0.00030517578125,0.06459049880504608,0.06314548850059509
0.008499999999999952,0.046001095324754715,0.0,0.061864230781793594,0.06177062913775444
0.009000000000000008,0.04599719122052193,0.00030517578125,0.05789238214492798,0.0618709996342659
0.009499999999999953,0.045991186052560806,0.00091552734375,0.05410512164235115,0.06221674010157585
0.010000000000000009,0.045983511954545975,0.00030517578125,0.05089554563164711,0.06158887967467308
0.010499999999999954,0.045974526554346085,0.0,0.047264162451028824,0.06179194524884224
0.01100000000000001,0.04596386104822159,0.0,0.04439646750688553,0.06167981028556824
0.011499999999999955,0.04595258831977844,0.0006103515625,0.042837683111429214,0.06256874650716782
0.01200000000000001,0.04594117030501366,0.0,0.04054408147931099,0.06199506297707558
0.012499999999999956,0.04592844471335411,0.0006103515625,0.038625966757535934,0.06224127858877182
0.013000000000000012,0.045916274189949036,-0.00030517578125,0.0379791185259819,0.06288810819387436
0.013499999999999956,0.045903529971838,0.0006103515625,0.03696712478995323,0.06191045790910721
0.014000000000000012,0.04589065909385681,0.0006103515625,0.036074310541152954,0.061872292309999466
0.014499999999999957,0.04587803781032562,0.00091552734375,0.03511356934905052,0.061790067702531815
0.015000000000000013,0.04586529731750488,0.00030517578125,0.03500045835971832,0.061589550226926804
0.015499999999999958,0.045852940529584885,0.00030517578125,0.03431014344096184,0.061135247349739075
0.016000000000000014,0.045839983969926834,0.00030517578125,0.03353481739759445,0.06193633750081062
0.01649999999999996,0.04582810774445534,0.001220703125,0.03422301262617111,0.06193104386329651
0.017000000000000015,0.04581558331847191,0.00030517578125,0.0330980159342289,0.06138521805405617
0.01749999999999996,0.04580298811197281,0.0,0.03363906964659691,0.06138366833329201
0.018000000000000016,0.04579094052314758,0.0,0.03257386013865471,0.061732832342386246
0.01849999999999996,0.045778412371873856,0.0006103515625,0.032044343650341034,0.06116766855120659
0.019000000000000017,0.045766666531562805,0.00030517578125,0.03222237527370453,0.06274151802062988
0.019499999999999962,0.04575394093990326,0.00030517578125,0.03178856894373894,0.06132489815354347
0.020000000000000018,0.04574204981327057,0.0006103515625,0.03144354373216629,0.061898961663246155
0.020499999999999963,0.04572977498173714,-0.00030517578125,0.03071938268840313,0.06178101897239685
0.02100000000000002,0.0457175113260746,0.00030517578125,0.030448157340288162,0.06109363213181496
0.021499999999999964,0.045705635100603104,0.00030517578125,0.030094504356384277,0.06100419908761978
0.02200000000000002,0.04569333791732788,0.0,0.02965269796550274,0.0617203526198864
0.022499999999999964,0.045681245625019073,0.00030517578125,0.029257740825414658,0.06199926137924194
0.02300000000000002,0.04566852003335953,0.0,0.029322370886802673,0.06095033138990402
0.023499999999999965,0.0456564836204052,0.0006103515625,0.028469769284129143,0.06115766987204552
0.02400000000000002,0.04564432054758072,0.00030517578125,0.028413699939846992,0.061474137008190155
0.024499999999999966,0.045632001012563705,0.00030517578125,0.02789754793047905,0.06050954759120941
0.025000000000000022,0.04562019929289818,0.00030517578125,0.02779053896665573,0.06161372736096382
0.025499999999999967,0.04560760408639908,0.0006103515625,0.027245506644248962,0.06142955273389816
0.026000000000000023,0.0455956757068634,0.00030517578125,0.02715359814465046,0.06162235513329506
0.026499999999999968,0.04558350145816803,0.00091552734375,0.02702954225242138,0.061252303421497345
0.027000000000000024,0.04557109996676445,0.0,0.026663199067115784,0.06112536042928696
0.02749999999999997,0.04555878788232803,-0.00030517578125,0.02622426114976406,0.0627484917640686
0.028000000000000025,0.045546531677246094,0.0,0.026044391095638275,0.060780711472034454
0.02849999999999997,0.04553454369306564,0.001220703125,0.025939807295799255,0.062305692583322525
0.029000000000000026,0.04552214965224266,0.00030517578125,0.025645677000284195,0.06092820689082146
0.02949999999999997,0.045509882271289825,0.0006103515625,0.02552737668156624,0.06156010180711746
0.030000000000000027,0.04549798741936684,0.0006103515625,0.025201421231031418,0.0613914355635643
0.03049999999999997,0.0454854778945446,0.00030517578125,0.024954529479146004,0.061543092131614685
0.031000000000000028,0.045473355799913406,0.0,0.02417977899312973,0.0616154782474041
0.03149999999999997,0.0454610176384449,0.00091552734375,0.02418052963912487,0.06179504841566086
0.03200000000000003,0.045448724180459976,0.0,0.024674031883478165,0.06248647719621658
0.03249999999999997,0.045436467975378036,0.0,0.023804809898138046,0.06116700544953346
0.03300000000000003,0.04542434215545654,0.0,0.023691369220614433,0.06160593032836914
0.033499999999999974,0.045412126928567886,0.00030517578125,0.023829730227589607,0.06238672882318497
0.03400000000000003,0.04539948329329491,0.00030517578125,0.02364281751215458,0.0614946186542511
0.034499999999999975,0.04538733512163162,0.0,0.023395542055368423,0.06199488043785095
0.03500000000000003,0.045375458896160126,0.0,0.022996483370661736,0.061385855078697205
0.035499999999999976,0.0453629270195961,-0.00030517578125,0.02288571000099182,0.061835877597332
0.03600000000000003,0.04535098001360893,0.00030517578125,0.022381475195288658,0.06212954223155975
0.03649999999999998,0.04533869028091431,0.0006103515625,0.02262190915644169,0.06155678257346153
0.03700000000000003,0.045326583087444305,0.00030517578125,0.02211552858352661,0.061707690358161926
0.03749999999999998,0.04531416669487953,0.00030517578125,0.021573098376393318,0.06179850921034813
0.038000000000000034,0.045302171260118484,0.0006103515625,0.02156098000705242,0.061668477952480316
0.03849999999999998,0.045290205627679825,0.0006103515625,0.021173471584916115,0.061891790479421616
0.039000000000000035,0.045277420431375504,0.00030517578125,0.02098328433930874,0.06164500117301941
0.03949999999999998,0.04526549577713013,0.00091552734375,0.020615098997950554,0.06243351101875305
0.040000000000000036,0.045253291726112366,0.00030517578125,0.020419282838702202,0.06163372844457626
0.04049999999999998,0.04524115100502968,0.00030517578125,0.019786307588219643,0.061657920479774475
0.041000000000000036,0.04522886127233505,0.00030517578125,0.019974928349256516,0.06199241057038307
0.04149999999999998,0.045216646045446396,0.0006103515625,0.019842825829982758,0.06156828626990318
0.04200000000000004,0.04520462825894356,0.0006103515625,0.019666755571961403,0.0622662678360939
0.04249999999999998,0.045191846787929535,0.0006103515625,0.019019125029444695,0.06165430322289467
0.04300000000000004,0.04517984017729759,0.00030517578125,0.01886182278394699,0.06198718398809433
0.04349999999999998,0.045167647302150726,0.0006103515625,0.01849556341767311,0.06143562123179436
0.04400000000000004,0.045155253261327744,0.00030517578125,0.01835966296494007,0.06182847544550896
0.044499999999999984,0.04514302685856819,0.00030517578125,0.01820390112698078,0.06170239299535751
0.04500000000000004,0.0451306588947773,0.00030517578125,0.018268704414367676,0.06092764064669609
0.045499999999999985,0.045118749141693115,0.00030517578125,0.017947759479284286,0.06166993826627731
0.04600000000000004,0.04510599002242088,0.00030517578125,0.017758039757609367,0.061058130115270615
0.046499999999999986,0.045093998312950134,0.00030517578125,0.017460651695728302,0.06141434237360954
0.04700000000000004,0.04508185759186745,0.00091552734375,0.017290513962507248,0.06119797006249428
0.04749999999999999,0.045069415122270584,0.0,0.016921453177928925,0.06173523887991905
0.04800000000000004,0.04505729675292969,0.00091552734375,0.01717504858970642,0.0611434243619442
0.04849999999999999,0.045045193284749985,0.0006103515625,0.016882160678505898,0.06112745404243469
0.049000000000000044,0.04503273591399193,0.0006103515625,0.01643812097609043,0.06162579730153084
0.04949999999999999,0.04502047225832939,0.0006103515625,0.016965476796030998,0.061608705669641495
0.050000000000000044,0.04500804468989372,0.0006103515625,0.016531439498066902,0.06051609292626381
0.05049999999999999,0.04499614238739014,0.00030517578125,0.016145113855600357,0.061995163559913635
0.051000000000000045,0.044983793050050735,0.0006103515625,0.016499796882271767,0.06103723123669624
0.05149999999999999,0.044971615076065063,0.0,0.016175027936697006,0.06156434863805771
0.052000000000000046,0.044959597289562225,0.0006103515625,0.015782110393047333,0.061806678771972656
0.05249999999999999,0.04494704678654671,0.00091552734375,0.01558138057589531,0.06144155189394951
0.05300000000000005,0.04493538290262222,0.00030517578125,0.015512841753661633,0.061616238206624985
0.05349999999999999,0.04492282122373581,0.0006103515625,0.015684034675359726,0.062388427555561066
0.05400000000000005,0.044910795986652374,0.0,0.015075362287461758,0.06218569353222847
0.05449999999999999,0.04489834979176521,0.0,0.015167208388447762,0.06113974377512932
0.05500000000000005,0.044886406511068344,0.0006103515625,0.015247233211994171,0.061949897557497025
0.055499999999999994,0.044874273240566254,0.0,0.01522144116461277,0.062016572803258896
0.05600000000000005,0.04486186429858208,0.00030517578125,0.014631535857915878,0.06107858940958977
0.056499999999999995,0.044849853962659836,0.0,0.01450350508093834,0.061920344829559326
0.05700000000000005,0.04483747109770775,0.00030517578125,0.014087583869695663,0.061313845217227936
0.057499999999999996,0.0448252372443676,0.0006103515625,0.01419246569275856,0.060547005385160446
0.05800000000000005,0.04481343552470207,0.0006103515625,0.014086315408349037,0.06088382005691528
0.058499999999999996,0.04480091854929924,0.00030517578125,0.013828445225954056,0.06164655089378357
0.05900000000000005,0.04478886350989342,0.0006103515625,0.014065823517739773,0.061089787632226944
0.0595,0.04477662220597267,0.00030517578125,0.01324063166975975,0.061120640486478806
0.06000000000000005,0.04476433992385864,0.0006103515625,0.01347204390913248,0.062176816165447235
0.0605,0.044752176851034164,0.00030517578125,0.013030101545155048,0.06093570590019226
0.061000000000000054,0.04473990947008133,0.0006103515625,0.012747441418468952,0.06084049120545387
0.0615,0.04472769424319267,0.0006103515625,0.013168619014322758,0.06086129695177078
0.062000000000000055,0.04471554607152939,0.0,0.012319420464336872,0.06169120967388153
0.0625,0.04470347240567207,0.00030517578125,0.012171362526714802,0.06077368184924126
0.06299999999999994,0.04469140246510506,0.00030517578125,0.012119199149310589,0.06147851049900055
0.0635,0.0446789525449276,0.0006103515625,0.012145648710429668,0.06129012629389763
0.06399999999999995,0.04466678202152252,0.0,0.012125722132623196,0.060837797820568085
0.0645,0.044654082506895065,0.00091552734375,0.011591100133955479,0.06108146905899048
0.06499999999999995,0.044642601162195206,0.0006103515625,0.011511363089084625,0.06220366060733795
0.0655,0.044629890471696854,0.0,0.01119990274310112,0.061354950070381165
0.06599999999999995,0.04461783170700073,0.0,0.011186620220541954,0.06103780120611191
0.0665,0.04460543766617775,0.0,0.011287045665085316,0.060908399522304535
0.06699999999999995,0.04459301382303238,0.00030517578125,0.010758180171251297,0.060319237411022186
0.0675,0.04458096623420715,0.0006103515625,0.01046064868569374,0.06208547577261925
0.06799999999999995,0.04456863924860954,0.00091552734375,0.010323370806872845,0.06118731200695038
0.0685,0.044556792825460434,0.001220703125,0.010563120245933533,0.06166084483265877
0.06899999999999995,0.04454408586025238,0.0,0.009985948912799358,0.060714591294527054
0.0695,0.0445321723818779,0.00030517578125,0.01012834906578064,0.061440642923116684
0.06999999999999995,0.04452012851834297,0.0006103515625,0.009820299223065376,0.06099807843565941
0.07050000000000001,0.044507741928100586,0.00030517578125,0.009508438408374786,0.06066395714879036
0.07099999999999995,0.04449572041630745,0.0006103515625,0.009377796202898026,0.06141281500458717
0.07150000000000001,0.04448344558477402,0.00091552734375,0.00930736679583788,0.06050131469964981
0.07199999999999995,0.04447091743350029,0.00030517578125,0.009023706428706646,0.061108119785785675
0.07250000000000001,0.04445887729525566,0.00030517578125,0.008409068919718266,0.060885846614837646
0.07299999999999995,0.04444693773984909,0.00030517578125,0.008755682036280632,0.06030004471540451
0.07350000000000001,0.04443482682108879,0.00030517578125,0.008592614904046059,0.06156450882554054
0.07399999999999995,0.0444222129881382,0.00030517578125,0.008033806458115578,0.060943059623241425
0.07450000000000001,0.04440998658537865,0.00030517578125,0.008307266980409622,0.06112448498606682
0.07499999999999996,0.044397901743650436,0.00030517578125,0.007968038320541382,0.06123087555170059
0.07550000000000001,0.04438571631908417,0.0006103515625,0.0074351998046040535,0.06181792542338371
0.07599999999999996,0.044373489916324615,0.0006103515625,0.007535324897617102,0.06120374798774719
0.07650000000000001,0.044361285865306854,0.00030517578125,0.007182330824434757,0.061253394931554794
0.07699999999999996,0.04434911534190178,-0.00030517578125,0.006772599648684263,0.061967868357896805
0.07750000000000001,0.04433656856417656,0.00030517578125,0.007120736408978701,0.061149340122938156
0.07799999999999996,0.04432445392012596,0.0006103515625,0.006592262536287308,0.06117644160985947
0.07850000000000001,0.04431229457259178,0.00030517578125,0.006726286374032497,0.06114198639988899
0.07899999999999996,0.04429987445473671,0.00030517578125,0.0064261360093951225,0.0608353428542614
0.07950000000000002,0.04428786039352417,0.0006103515625,0.006164991296827793,0.061442844569683075
0.07999999999999996,0.04427565261721611,0.00030517578125,0.006043409928679466,0.061579205095767975
0.08050000000000002,0.04426298663020134,0.0,0.006351472344249487,0.061543721705675125
0.08099999999999996,0.04425113648176193,0.00030517578125,0.005867567379027605,0.06101098656654358
0.08150000000000002,0.0442386232316494,0.00091552734375,0.005796649493277073,0.06126011908054352
0.08199999999999996,0.044226665049791336,0.0006103515625,0.006212250329554081,0.06151473894715309
0.08250000000000002,0.044213954359292984,0.0006103515625,0.005010454449802637,0.06051362678408623
0.08299999999999996,0.044202111661434174,0.0006103515625,0.005333881825208664,0.06174365058541298
0.08350000000000002,0.04418983310461044,0.00091552734375,0.005194168072193861,0.061436597257852554
0.08399999999999996,0.04417764022946358,0.00030517578125,0.005222220905125141,0.06099867820739746
0.08450000000000002,0.04416581243276596,-0.00030517578125,0.0051066456362605095,0.061123061925172806
0.08499999999999996,0.044153157621622086,0.00030517578125,0.00508812116459012,0.061643533408641815
0.08550000000000002,0.044141270220279694,0.0006103515625,0.0043083191849291325,0.061533957719802856
0.08599999999999997,0.044128526002168655,0.0,0.004369010217487812,0.06038476526737213
0.08650000000000002,0.04411674663424492,0.0006103515625,0.004266692325472832,0.06119498983025551
0.08699999999999997,0.04410440847277641,0.00030517578125,0.004289100877940655,0.061545923352241516
0.08750000000000002,0.04409211501479149,0.00030517578125,0.004071234725415707,0.06202407553792
0.08799999999999997,0.044080089777708054,0.0,0.004168049432337284,0.06196729466319084
0.08850000000000002,0.04406750947237015,0.0006103515625,0.004641012288630009,0.061974190175533295
0.08899999999999997,0.044055432081222534,0.00030517578125,0.0038907926063984632,0.06105850264430046
0.08950000000000002,0.04404335096478462,0.0006103515625,0.004058380611240864,0.061473995447158813
0.08999999999999997,0.044030752032995224,0.0,0.003993007354438305,0.061111025512218475
0.09050000000000002,0.04401903972029686,0.0006103515625,0.0035577400121837854,0.06192818284034729
0.09099999999999997,0.04400642216205597,0.0006103515625,0.003454243764281273,0.060914840549230576
0.09150000000000003,0.043994560837745667,0.001220703125,0.003748563816770911,0.06204448640346527
0.09199999999999997,0.04398204758763313,0.00030517578125,0.003586194012314081,0.060820844024419785
0.09250000000000003,0.0439700223505497,0.0,0.003485226770862937,0.06126563623547554
0.09299999999999997,0.04395797848701477,0.0006103515625,0.0035136425867676735,0.061886854469776154
0.09350000000000003,0.043945495039224625,0.0,0.003269381821155548,0.061076320707798004
0.09399999999999997,0.043933264911174774,0.001220703125,0.0034282042179256678,0.061261046677827835
0.09450000000000003,0.04392102360725403,0.00091552734375,0.0030252081342041492,0.061740413308143616
0.09499999999999997,0.04390889033675194,0.00030517578125,0.0034386476036161184,0.06185179576277733
0.09550000000000003,0.04389643669128418,0.00030517578125,0.0031401135493069887,0.06062611564993858
0.09599999999999997,0.043884389102458954,0.00030517578125,0.00282003590837121,0.061320964246988297
0.09650000000000003,0.04387243092060089,0.0,0.0031293442007154226,0.06237271428108215
0.09699999999999998,0.04385984688997269,0.0006103515625,0.002158151473850012,0.06110791116952896
0.09750000000000003,0.04384796321392059,0.0006103515625,0.0028392495587468147,0.06139205023646355
0.09799999999999998,0.04383544996380806,0.00030517578125,0.002794295782223344,0.06109871715307236
0.09850000000000003,0.04382329806685448,0.00030517578125,0.001933608204126358,0.061639200896024704
0.09899999999999998,0.043810904026031494,0.00091552734375,0.002645268803462386,0.061517804861068726
0.09950000000000003,0.04379856586456299,0.00030517578125,0.002381636295467615,0.061911288648843765
0.09999999999999998,0.04378649964928627,0.0006103515625,0.002241584938019514,0.06196380779147148
0.10050000000000003,0.0437743179500103,0.00030517578125,0.002333506476134062,0.06133624538779259
0.10099999999999998,0.04376208037137985,0.00091552734375,0.002133734291419387,0.061051253229379654
0.10150000000000003,0.04375016689300537,0.00030517578125,0.0024146167561411858,0.06097503378987312
0.10199999999999998,0.04373759776353836,0.0006103515625,0.0022452049888670444,0.060554202646017075
0.10250000000000004,0.043725501745939255,0.0,0.0017254747217521071,0.06136760115623474
0.10299999999999998,0.04371333867311478,0.0,0.0020034178160130978,0.060922130942344666
0.10350000000000004,0.04370073229074478,0.00030517578125,0.0022126950789242983,0.06019982695579529
0.10399999999999998,0.043688736855983734,0.00030517578125,0.0019205546705052257,0.060925696045160294
