Time [s],Lmtc [m],STIM [ ],fGM [N],fGL [N]
0.0,0.04600677639245987,0.00030517578125,0.07073814421892166,0.06383168697357178
0.0004999999999999449,0.04600660875439644,0.00091552734375,0.07075459510087967,0.06177932024002075
0.0010000000000000009,0.04600667208433151,0.0006103515625,0.07091745734214783,0.06296487897634506
0.0014999999999999458,0.046006690710783005,0.0006103515625,0.07069605588912964,0.06143539398908615
0.0020000000000000018,0.04600666090846062,0.0006103515625,0.0709129050374031,0.062009382992982864
0.0024999999999999467,0.04600680619478226,0.00091552734375,0.07100136578083038,0.06176086142659187
0.0030000000000000027,0.046006593853235245,0.0006103515625,0.07100517302751541,0.06189994513988495
0.0034999999999999476,0.04600667580962181,0.0,0.07051073759794235,0.06266385316848755
0.0040000000000000036,0.046006735414266586,0.001220703125,0.0710127130150795,0.061655256897211075
0.0044999999999999485,0.046007052063941956,0.0006103515625,0.07080771774053574,0.0622253343462944
0.0050000000000000044,0.0460066944360733,0.0006103515625,0.07123726606369019,0.062084347009658813
0.005499999999999949,0.046006686985492706,0.0,0.0707281082868576,0.0621514618396759
0.006000000000000005,0.046006638556718826,0.0006103515625,0.07052633911371231,0.06185285747051239
0.00649999999999995,0.04600609838962555,0.00030517578125,0.07008584588766098,0.06135890632867813
0.007000000000000006,0.046005938202142715,0.0006103515625,0.06940193474292755,0.06173490360379219
0.007499999999999951,0.04600526764988899,0.00091552734375,0.068171426653862,0.06167983636260033
0.008000000000000007,0.04600372537970543,0.0006103515625,0.06556890159845352,0.061071258038282394
0.008499999999999952,0.04600180685520172,0.0,0.06332945078611374,0.061144955456256866
0.009000000000000008,0.045997947454452515,0.00091552734375,0.06031448021531105,0.06156681105494499
0.009499999999999953,0.04599336162209511,0.0,0.05782436206936836,0.06212201341986656
0.010000000000000009,0.04598740488290787,0.0,0.05540747940540314,0.061598099768161774
0.010499999999999954,0.045980773866176605,0.00091552734375,0.05315181985497475,0.06137169897556305
0.01100000000000001,0.04597337916493416,0.0006103515625,0.05141936615109444,0.062107332050800323
0.011499999999999955,0.04596550017595291,-0.00030517578125,0.04964979737997055,0.061793457716703415
0.01200000000000001,0.04595743864774704,0.00030517578125,0.04869285970926285,0.06289167702198029
0.012499999999999956,0.045948952436447144,0.0006103515625,0.047259166836738586,0.062494274228811264
0.013000000000000012,0.04594052955508232,0.00091552734375,0.04570434242486954,0.06225021556019783
0.013499999999999956,0.04593227803707123,0.00091552734375,0.04462355375289917,0.061358001083135605
0.014000000000000012,0.04592403769493103,0.0006103515625,0.04366704449057579,0.06161925569176674
0.014499999999999957,0.04591573774814606,0.0006103515625,0.042826130986213684,0.06223706901073456
0.015000000000000013,0.045907359570264816,0.00030517578125,0.04249826446175575,0.061445411294698715
0.015499999999999958,0.045899081975221634,0.00030517578125,0.041630055755376816,0.0630105659365654
0.016000000000000014,0.04589053615927696,0.0006103515625,0.04125392064452171,0.06157618388533592
0.01649999999999996,0.04588216543197632,0.00030517578125,0.04092223197221756,0.06141895800828934
0.017000000000000015,0.045874450355768204,0.0,0.0409594364464283,0.06236064061522484
0.01749999999999996,0.045865822583436966,0.00091552734375,0.04027332365512848,0.062454793602228165
0.018000000000000016,0.0458575002849102,0.0006103515625,0.03983604162931442,0.061861954629421234
0.01849999999999996,0.04584987089037895,0.00091552734375,0.03960085287690163,0.06211239844560623
0.019000000000000017,0.045841287821531296,0.00030517578125,0.039247091859579086,0.06280513852834702
0.019499999999999962,0.04583333060145378,0.0,0.039374612271785736,0.06196384131908417
0.020000000000000018,0.04582514986395836,0.00030517578125,0.03914541378617287,0.06152947247028351
0.020499999999999963,0.045817259699106216,0.0006103515625,0.03876882791519165,0.0622941218316555
0.02100000000000002,0.04580914229154587,0.00091552734375,0.03849725425243378,0.06188489496707916
0.021499999999999964,0.04580073058605194,0.0006103515625,0.03837883844971657,0.06148465722799301
0.02200000000000002,0.04579292982816696,0.0006103515625,0.038362327963113785,0.06188174709677696
0.022499999999999964,0.0457843653857708,0.00030517578125,0.03772618621587753,0.06177544966340065
0.02300000000000002,0.04577626287937164,0.0006103515625,0.037856750190258026,0.06296250224113464
0.023499999999999965,0.04576846957206726,0.0006103515625,0.037675995379686356,0.062245145440101624
0.02400000000000002,0.04576035588979721,0.00030517578125,0.037567511200904846,0.06237789988517761
0.024499999999999966,0.04575241357088089,-0.0006103515625,0.03732939064502716,0.06251232326030731
0.025000000000000022,0.04574421048164368,0.0006103515625,0.03708122670650482,0.06178699806332588
0.025499999999999967,0.04573613405227661,0.00030517578125,0.03722864016890526,0.06272851675748825
0.026000000000000023,0.045728132128715515,0.0,0.036857303231954575,0.06169144809246063
0.026499999999999968,0.04571970924735069,0.00030517578125,0.03695350140333176,0.060946401208639145
0.027000000000000024,0.04571189358830452,0.0006103515625,0.037024062126874924,0.06126997619867325
0.02749999999999997,0.04570382088422775,0.00030517578125,0.03650447726249695,0.06138996779918671
0.028000000000000025,0.04569557309150696,0.00030517578125,0.036717019975185394,0.061867788434028625
0.02849999999999997,0.045687928795814514,0.0006103515625,0.03646544739603996,0.06228797510266304
0.029000000000000026,0.0456794835627079,0.00030517578125,0.0366186760365963,0.06242381036281586
0.02949999999999997,0.04567145183682442,0.00030517578125,0.03662380948662758,0.06167926639318466
0.030000000000000027,0.045663539320230484,0.0006103515625,0.03607375547289848,0.06177143752574921
0.03049999999999997,0.045655541121959686,0.0006103515625,0.03633148595690727,0.061882294714450836
0.031000000000000028,0.04564749076962471,0.0006103515625,0.03629608079791069,0.060760945081710815
0.03149999999999997,0.04563920572400093,0.00030517578125,0.03578377515077591,0.06231102719902992
0.03200000000000003,0.04563169926404953,0.00091552734375,0.035989224910736084,0.0627768486738205
0.03249999999999997,0.04562319815158844,0.0,0.03575427085161209,0.06129411980509758
0.03300000000000003,0.045615170150995255,0.0006103515625,0.035937827080488205,0.06239932030439377
0.033499999999999974,0.04560709372162819,0.0006103515625,0.03576279431581497,0.06185208261013031
0.03400000000000003,0.04559886083006859,0.0006103515625,0.03586028516292572,0.06231699883937836
0.034499999999999975,0.0455910861492157,0.0006103515625,0.035127557814121246,0.06272416561841965
0.03500000000000003,0.04558258503675461,0.00030517578125,0.035189706832170486,0.06136578321456909
0.035499999999999976,0.04557463154196739,0.0006103515625,0.03526866063475609,0.062210824340581894
0.03600000000000003,0.04556639865040779,0.00030517578125,0.03447811305522919,0.061126045882701874
0.03649999999999998,0.04555840045213699,0.00091552734375,0.03486643359065056,0.06226874887943268
0.03700000000000003,0.04555061087012291,0.00030517578125,0.03471379727125168,0.06216714531183243
0.03749999999999998,0.045542165637016296,0.0,0.034905530512332916,0.06165698543190956
0.038000000000000034,0.04553473740816116,0.0006103515625,0.034497588872909546,0.06264803558588028
0.03849999999999998,0.04552655294537544,0.00091552734375,0.03461712971329689,0.06262512505054474
0.039000000000000035,0.0455181784927845,0.001220703125,0.03464512899518013,0.061527010053396225
0.03949999999999998,0.04551003873348236,0.0,0.03409019112586975,0.0622820109128952
0.040000000000000036,0.045501869171857834,0.00030517578125,0.03384733572602272,0.0614495575428009
0.04049999999999998,0.045494019985198975,0.0006103515625,0.033787522464990616,0.06241265684366226
0.041000000000000036,0.045485980808734894,0.00091552734375,0.033636756241321564,0.06235828250646591
0.04149999999999998,0.04547790065407753,0.00091552734375,0.03342265635728836,0.06110399216413498
0.04200000000000004,0.045469678938388824,0.0006103515625,0.033601343631744385,0.06284108757972717
0.04249999999999998,0.04546143487095833,0.00030517578125,0.03322915732860565,0.061720289289951324
0.04300000000000004,0.04545355215668678,0.0,0.03327425196766853,0.06192122772336006
0.04349999999999998,0.04544569551944733,0.001220703125,0.032835397869348526,0.06241358444094658
0.04400000000000004,0.04543725401163101,0.0006103515625,0.032565392553806305,0.06163488328456879
0.044499999999999984,0.04542927443981171,0.00030517578125,0.03226432576775551,0.06222163513302803
0.04500000000000004,0.04542100429534912,0.00030517578125,0.03239355608820915,0.06116949021816254
0.045499999999999985,0.04541323333978653,0.00030517578125,0.03251005709171295,0.06286538392305374
0.04600000000000004,0.04540472850203514,0.00091552734375,0.03200024738907814,0.061701878905296326
0.046499999999999986,0.045396629720926285,0.00091552734375,0.03190704062581062,0.06135573983192444
0.04700000000000004,0.04538891464471817,0.0006103515625,0.03159484639763832,0.0620475634932518
0.04749999999999999,0.04538042098283768,0.0006103515625,0.03154951333999634,0.06097925081849098
0.04800000000000004,0.04537242650985718,0.0006103515625,0.031252652406692505,0.06194201111793518
0.04849999999999999,0.04536447674036026,0.00030517578125,0.030623093247413635,0.061383962631225586
0.049000000000000044,0.045356329530477524,0.00030517578125,0.03113442286849022,0.06075073406100273
0.04949999999999999,0.04534826800227165,0.00030517578125,0.03092499077320099,0.061889223754405975
0.050000000000000044,0.04534022510051727,0.00030517578125,0.030482957139611244,0.06053532660007477
0.05049999999999999,0.04533257707953453,0.00030517578125,0.03002338483929634,0.06214336305856705
0.051000000000000045,0.04532404616475105,0.0006103515625,0.029501421377062798,0.06148090213537216
0.05149999999999999,0.045315932482481,0.001220703125,0.02952471561729908,0.06145578995347023
0.052000000000000046,0.04530826210975647,0.00091552734375,0.02917867712676525,0.06177645921707153
0.05249999999999999,0.04529969394207001,0.00091552734375,0.028892049565911293,0.06157958507537842
0.05300000000000005,0.04529184475541115,0.0,0.028621850535273552,0.06208794564008713
0.05349999999999999,0.04528360441327095,0.0006103515625,0.028585510328412056,0.061446744948625565
0.05400000000000005,0.04527570307254791,0.0006103515625,0.028485072776675224,0.06101030856370926
0.05449999999999999,0.04526761919260025,0.00091552734375,0.027960773557424545,0.06176336109638214
0.05500000000000005,0.04525940120220184,0.0006103515625,0.027632329612970352,0.061557088047266006
0.055499999999999994,0.045251406729221344,0.00030517578125,0.02761012502014637,0.06168658658862114
0.05600000000000005,0.04524340480566025,0.00030517578125,0.02722315676510334,0.06167357787489891
0.056499999999999995,0.04523498937487602,0.0006103515625,0.026764195412397385,0.06131121143698692
0.05700000000000005,0.04522736743092537,0.00091552734375,0.026832880452275276,0.062459178268909454
0.057499999999999996,0.045218922197818756,0.0006103515625,0.02655438892543316,0.060715578496456146
0.05800000000000005,0.04521091654896736,0.00091552734375,0.025963246822357178,0.061371851712465286
0.058499999999999996,0.04520278796553612,0.0006103515625,0.026122011244297028,0.06152750551700592
0.05900000000000005,0.04519461840391159,0.0006103515625,0.025651291012763977,0.06186137720942497
0.0595,0.045186661183834076,0.0,0.02540658228099346,0.0611378476023674
0.06000000000000005,0.04517851397395134,0.001220703125,0.02533893473446369,0.06191340088844299
0.0605,0.04517074301838875,0.00030517578125,0.024714430794119835,0.061918605118989944
0.061000000000000054,0.045162227004766464,0.0006103515625,0.0243209395557642,0.06124400720000267
0.0615,0.04515428468585014,0.0006103515625,0.024321816861629486,0.0623864121735096
0.062000000000000055,0.045146360993385315,0.00030517578125,0.024359947070479393,0.06175602227449417
0.0625,0.04513820633292198,0.001220703125,0.02353609912097454,0.061386290937662125
0.06299999999999994,0.04513010382652283,0.0006103515625,0.023665953427553177,0.0615595243871212
0.0635,0.04512205719947815,0.0006103515625,0.02342534437775612,0.06141582503914833
0.06399999999999995,0.045113615691661835,0.0006103515625,0.023417755961418152,0.06186326965689659
0.0645,0.04510554298758507,0.0006103515625,0.023088417947292328,0.061989910900592804
0.06499999999999995,0.04509752243757248,0.00091552734375,0.022689489647746086,0.06238613277673721
0.0655,0.04508945345878601,0.0006103515625,0.022349508479237556,0.06241361424326897
0.06599999999999995,0.0450810082256794,0.0,0.021871071308851242,0.06114968657493591
0.0665,0.04507312923669815,0.0,0.021653326228260994,0.0617838017642498
0.06699999999999995,0.04506511241197586,0.00030517578125,0.022011326625943184,0.06120389327406883
0.0675,0.04505668208003044,0.0006103515625,0.021225271746516228,0.061824943870306015
0.06799999999999995,0.04504861682653427,0.00091552734375,0.021338334307074547,0.061699509620666504
0.0685,0.04504067823290825,0.00030517578125,0.021386491134762764,0.06113840639591217
0.06899999999999995,0.045032285153865814,0.0,0.02099277824163437,0.06190745532512665
0.0695,0.045024286955595016,0.00030517578125,0.02065885253250599,0.061099566519260406
0.06999999999999995,0.04501605033874512,0.00030517578125,0.019901493564248085,0.061354562640190125
0.07050000000000001,0.045008402317762375,0.0006103515625,0.02034945972263813,0.06227550283074379
0.07099999999999995,0.04500012472271919,0.00030517578125,0.019930189475417137,0.06127290055155754
0.07150000000000001,0.044992029666900635,0.0006103515625,0.02010483480989933,0.06252492964267731
0.07199999999999995,0.044984303414821625,0.00091552734375,0.019487837329506874,0.062306374311447144
0.07250000000000001,0.04497576132416725,0.00030517578125,0.019674241542816162,0.061663173139095306
0.07299999999999995,0.044967517256736755,0.00030517578125,0.01977192610502243,0.06101834401488304
0.07350000000000001,0.04496000334620476,0.00091552734375,0.01901685632765293,0.06179417297244072
0.07399999999999995,0.04495177045464516,0.00091552734375,0.01895749568939209,0.061320871114730835
0.07450000000000001,0.044943924993276596,0.00030517578125,0.018935551866889,0.06144527718424797
0.07499999999999996,0.044935885816812515,0.00030517578125,0.019009975716471672,0.06190738454461098
0.07550000000000001,0.044927552342414856,0.00030517578125,0.018568288534879684,0.06180039420723915
0.07599999999999996,0.044919658452272415,0.0006103515625,0.018239818513393402,0.06075715273618698
0.07650000000000001,0.04491129890084267,0.00091552734375,0.018536219373345375,0.061726443469524384
0.07699999999999996,0.04490334168076515,0.0006103515625,0.017886828631162643,0.061521828174591064
0.07750000000000001,0.04489526525139809,0.00030517578125,0.017546288669109344,0.06102348491549492
0.07799999999999996,0.04488741233944893,0.0,0.017964275553822517,0.06209361180663109
0.07850000000000001,0.04487922042608261,0.0006103515625,0.017757635563611984,0.06165465712547302
0.07899999999999996,0.044871099293231964,0.00030517578125,0.01750832051038742,0.06186886504292488
0.07950000000000002,0.0448632687330246,0.0006103515625,0.017163626849651337,0.0613335557281971
0.07999999999999996,0.044855061918497086,0.00030517578125,0.017146484926342964,0.061432477086782455
0.08050000000000002,0.04484696686267853,0.00030517578125,0.016923977062106133,0.06126509979367256
0.08099999999999996,0.044839050620794296,0.0006103515625,0.016825789585709572,0.0612504780292511
0.08150000000000002,0.04483062028884888,0.00030517578125,0.01706121675670147,0.06140490248799324
0.08199999999999996,0.044822510331869125,0.0006103515625,0.01657438836991787,0.0622459314763546
0.08250000000000002,0.04481413587927818,0.0006103515625,0.016564039513468742,0.06144510954618454
0.08299999999999996,0.044806402176618576,0.0006103515625,0.01659206487238407,0.06249485909938812
0.08350000000000002,0.04479864984750748,0.0,0.0162187609821558,0.06148470565676689
0.08399999999999996,0.04479026421904564,0.00091552734375,0.015891600400209427,0.061692386865615845
0.08450000000000002,0.04478229582309723,0.0,0.01638736017048359,0.0612683929502964
0.08499999999999996,0.0447741262614727,0.0006103515625,0.01613406278192997,0.06187063083052635
0.08550000000000002,0.04476631060242653,0.00030517578125,0.016042577102780342,0.06214706972241402
0.08599999999999997,0.04475822299718857,0.00091552734375,0.01602976955473423,0.06191697344183922
0.08650000000000002,0.0447499118745327,0.0,0.01602878049015999,0.06149841472506523
0.08699999999999997,0.04474218934774399,0.0006103515625,0.0157624464482069,0.06203578785061836
0.08750000000000002,0.044734079390764236,0.00030517578125,0.015091986395418644,0.0608767494559288
0.08799999999999997,0.04472598806023598,0.0006103515625,0.015756461769342422,0.06208724528551102
0.08850000000000002,0.04471800848841667,0.00091552734375,0.015367169864475727,0.06228514388203621
0.08899999999999997,0.044709473848342896,0.00091552734375,0.015098071657121181,0.06143299862742424
0.08950000000000002,0.044701848179101944,0.0006103515625,0.01526238676160574,0.06185660511255264
0.08999999999999997,0.044693563133478165,0.0006103515625,0.01502351276576519,0.0608583465218544
0.09050000000000002,0.04468555748462677,0.00030517578125,0.01508408598601818,0.06170281022787094
0.09099999999999997,0.044677287340164185,0.0006103515625,0.014890547841787338,0.06066262349486351
0.09150000000000003,0.04466904699802399,0.0006103515625,0.014607354998588562,0.06188953295350075
0.09199999999999997,0.04466147720813751,0.00091552734375,0.014502360485494137,0.06348627805709839
0.09250000000000003,0.044652730226516724,0.00091552734375,0.014641066081821918,0.061399124562740326
0.09299999999999997,0.0446450337767601,0.0006103515625,0.014200701378285885,0.06148345395922661
0.09350000000000003,0.044636934995651245,0.00091552734375,0.014343629591166973,0.06180524080991745
0.09399999999999997,0.04462875798344612,0.0006103515625,0.01419803500175476,0.06134998798370361
0.09450000000000003,0.044620923697948456,0.00030517578125,0.014186805114150047,0.061424288898706436
0.09499999999999997,0.04461266100406647,0.0006103515625,0.014438796788454056,0.0608622208237648
0.09550000000000003,0.04460455849766731,0.0006103515625,0.013796715997159481,0.06139039993286133
0.09599999999999997,0.044596556574106216,0.00030517578125,0.013790813274681568,0.06258632987737656
0.09650000000000003,0.04458817467093468,0.00030517578125,0.01427346933633089,0.06121942028403282
0.09699999999999998,0.0445803739130497,0.0,0.013700536452233791,0.06270111352205276
0.09750000000000003,0.04457194358110428,0.0,0.013403598219156265,0.061250392347574234
0.09799999999999998,0.04456419497728348,0.0006103515625,0.013192280195653439,0.06179390102624893
0.09850000000000003,0.044556017965078354,0.0006103515625,0.01382519118487835,0.06168050691485405
0.09899999999999998,0.044547755271196365,0.0006103515625,0.013008568435907364,0.061538465321063995
0.09950000000000003,0.044539958238601685,0.00030517578125,0.01300939079374075,0.06216123327612877
0.09999999999999998,0.04453170299530029,0.00030517578125,0.013163999654352665,0.06112607568502426
0.10050000000000003,0.04452389106154442,0.0006103515625,0.012914872728288174,0.06165605038404465
0.10099999999999998,0.04451560974121094,0.0,0.012894311919808388,0.061470065265893936
0.10150000000000003,0.04450766742229462,0.00091552734375,0.013075175695121288,0.06127399578690529
0.10199999999999998,0.044499482959508896,0.0006103515625,0.012535755522549152,0.0616624690592289
0.10250000000000004,0.04449133202433586,0.00091552734375,0.012408371083438396,0.062024541199207306
0.10299999999999998,0.04448354244232178,0.00091552734375,0.012365219183266163,0.06212528422474861
0.10350000000000004,0.04447538033127785,0.00030517578125,0.01251925528049469,0.05985717847943306
0.10399999999999998,0.04446707293391228,0.0,0.012716442346572876,0.061104290187358856
