Time [s],Lmtc [m],STIM [ ],fGM [N],fGL [N]
0.0,0.0460067093372345,0.00030517578125,0.0691186860203743,0.06227217987179756
0.0004999999999999449,0.046006377786397934,0.0006103515625,0.0683480054140091,0.06210185959935188
0.0010000000000000009,0.04600682482123375,0.0006103515625,0.06879974901676178,0.06242932751774788
0.0014999999999999458,0.0460069477558136,0.0006103515625,0.06836783140897751,0.06117408722639084
0.0020000000000000018,0.04600641131401062,0.0006103515625,0.06850894540548325,0.06131778284907341
0.0024999999999999467,0.04600659757852554,0.0006103515625,0.06868625432252884,0.06219805032014847
0.0030000000000000027,0.04600680246949196,0.0006103515625,0.0684075877070427,0.06115869805216789
0.0034999999999999476,0.04600655660033226,0.00030517578125,0.06856510788202286,0.06210179999470711
0.0040000000000000036,0.04600689560174942,0.0006103515625,0.06827431917190552,0.061139121651649475
0.0044999999999999485,0.046006686985492706,0.0006103515625,0.06869218498468399,0.0612097829580307
0.0050000000000000044,0.04600665345788002,0.0006103515625,0.06870906054973602,0.06208062171936035
0.005499999999999949,0.04600636661052704,0.0006103515625,0.06785088032484055,0.06168505549430847
0.006000000000000005,0.046006835997104645,0.00030517578125,0.06847058981657028,0.061626747250556946
0.00649999999999995,0.0460064671933651,0.0006103515625,0.06748277693986893,0.062296170741319656
0.007000000000000006,0.04600581154227257,0.0,0.06649231910705566,0.06198989599943161
0.007499999999999951,0.046005070209503174,0.0,0.0642879530787468,0.06240548938512802
0.008000000000000007,0.04600272327661514,0.0,0.061484746634960175,0.06141165271401405
0.008499999999999952,0.045999154448509216,0.0006103515625,0.057930395007133484,0.06178585812449455
0.009000000000000008,0.045993622392416,0.0,0.05412140488624573,0.06114554777741432
0.009499999999999953,0.045986488461494446,0.00091552734375,0.05003577098250389,0.06229635328054428
0.010000000000000009,0.04597793519496918,0.00030517578125,0.0467340350151062,0.06268596649169922
0.010499999999999954,0.04596762731671333,0.0,0.04361259564757347,0.06186867505311966
0.01100000000000001,0.04595685377717018,0.0006103515625,0.041548896580934525,0.06232208386063576
0.011499999999999955,0.04594447463750839,0.0,0.039256226271390915,0.0610138364136219
0.01200000000000001,0.04593207687139511,0.00030517578125,0.03749747574329376,0.0620875358581543
0.012499999999999956,0.04591923579573631,-0.00030517578125,0.03624168410897255,0.06188671290874481
0.013000000000000012,0.0459061935544014,0.00091552734375,0.035264067351818085,0.062173228710889816
0.013499999999999956,0.04589312523603439,0.00091552734375,0.03488318622112274,0.061509326100349426
0.014000000000000012,0.04587986692786217,0.0006103515625,0.03368314728140831,0.060505740344524384
0.014499999999999957,0.04586730897426605,-0.00030517578125,0.0338699147105217,0.062198180705308914
0.015000000000000013,0.045853886753320694,0.00030517578125,0.03326830267906189,0.061121176928281784
0.015499999999999958,0.045841384679079056,0.00030517578125,0.032530076801776886,0.06226714700460434
0.016000000000000014,0.04582874849438667,0.0006103515625,0.032539743930101395,0.061518557369709015
0.01649999999999996,0.04581581428647041,0.00030517578125,0.03242257609963417,0.06141359731554985
0.017000000000000015,0.04580292850732803,0.0006103515625,0.032182008028030396,0.06168976053595543
0.01749999999999996,0.04579044133424759,0.0006103515625,0.03205632045865059,0.06114255636930466
0.018000000000000016,0.04577786102890968,0.00030517578125,0.03151102364063263,0.06169459596276283
0.01849999999999996,0.04576514661312103,0.0,0.031134458258748055,0.06083216145634651
0.019000000000000017,0.045752573758363724,0.00091552734375,0.030938154086470604,0.06168904900550842
0.019499999999999962,0.045740384608507156,0.0,0.03036314994096756,0.06171248480677605
0.020000000000000018,0.0457274466753006,0.00030517578125,0.0297563336789608,0.06081460416316986
0.020499999999999963,0.0457153245806694,0.001220703125,0.029647821560502052,0.06169978529214859
0.02100000000000002,0.045702870935201645,0.00091552734375,0.028788626194000244,0.06148293614387512
0.021499999999999964,0.04569030553102493,0.00030517578125,0.028914207592606544,0.062013909220695496
0.02200000000000002,0.045677825808525085,0.0006103515625,0.027897287160158157,0.0614098384976387
0.022499999999999964,0.04566505178809166,0.00030517578125,0.027844063937664032,0.06103475019335747
0.02300000000000002,0.04565287008881569,0.00030517578125,0.027849553152918816,0.06144345551729202
0.023499999999999965,0.045640017837285995,0.0,0.027429919689893723,0.06079471483826637
0.02400000000000002,0.045627664774656296,0.00091552734375,0.02731955423951149,0.061486903578042984
0.024499999999999966,0.04561532288789749,0.00091552734375,0.026995502412319183,0.061176229268312454
0.025000000000000022,0.04560214281082153,0.0,0.026779843494296074,0.06043310835957527
0.025499999999999967,0.04558999091386795,0.00030517578125,0.026254339143633842,0.06121814623475075
0.026000000000000023,0.045577485114336014,0.00091552734375,0.025786424055695534,0.06154264509677887
0.026499999999999968,0.045564908534288406,0.00030517578125,0.02610379084944725,0.06156235188245773
0.027000000000000024,0.04555230960249901,0.00030517578125,0.02578851953148842,0.06086175516247749
0.02749999999999997,0.04553963989019394,0.00030517578125,0.025440393015742302,0.062319204211235046
0.028000000000000025,0.04552743583917618,0.00030517578125,0.025640323758125305,0.0618477389216423
0.02849999999999997,0.04551462456583977,0.0,0.025252031162381172,0.06043042987585068
0.029000000000000026,0.04550255089998245,0.0006103515625,0.024817246943712234,0.061590682715177536
0.02949999999999997,0.045489612966775894,0.0,0.02503623627126217,0.060705531388521194
0.030000000000000027,0.04547696188092232,0.00030517578125,0.024664750322699547,0.06126498430967331
0.03049999999999997,0.04546462371945381,0.0006103515625,0.023844895884394646,0.06143314763903618
0.031000000000000028,0.04545194283127785,0.0006103515625,0.024229787290096283,0.0616338811814785
0.03149999999999997,0.04543927311897278,0.00091552734375,0.02373761311173439,0.06171225383877754
0.03200000000000003,0.04542650282382965,0.0006103515625,0.02367263287305832,0.061528898775577545
0.03249999999999997,0.04541442170739174,0.0,0.023726405575871468,0.06130756437778473
0.03300000000000003,0.045401908457279205,0.0006103515625,0.02328597567975521,0.06286434829235077
0.033499999999999974,0.0453888401389122,0.00091552734375,0.023147355765104294,0.061031680554151535
0.03400000000000003,0.04537676274776459,0.0006103515625,0.022931445389986038,0.06220674514770508
0.034499999999999975,0.04536404833197594,0.00030517578125,0.022838180884718895,0.06174715235829353
0.03500000000000003,0.04535135254263878,0.0,0.02244625613093376,0.06119256839156151
0.035499999999999976,0.04533905163407326,0.0,0.02234904281795025,0.061221893876791
0.03600000000000003,0.04532662034034729,0.001220703125,0.022077878937125206,0.06136680394411087
0.03649999999999998,0.045314010232686996,0.0006103515625,0.02207300066947937,0.06270613521337509
0.03700000000000003,0.04530095309019089,0.0006103515625,0.02141261100769043,0.060700830072164536
0.03749999999999998,0.04528912901878357,0.0006103515625,0.02150028757750988,0.061572346836328506
0.038000000000000034,0.04527628421783447,0.00030517578125,0.02101323753595352,0.06153948977589607
0.03849999999999998,0.045263588428497314,0.00030517578125,0.02079443447291851,0.06133852154016495
0.039000000000000035,0.045251354575157166,0.0006103515625,0.021029043942689896,0.061827708035707474
0.03949999999999998,0.045238763093948364,0.00030517578125,0.02033374086022377,0.06145592778921127
0.040000000000000036,0.045226313173770905,0.0006103515625,0.020253116264939308,0.06148507818579674
0.04049999999999998,0.045213665813207626,0.00030517578125,0.020016461610794067,0.060758620500564575
0.041000000000000036,0.04520105570554733,0.0006103515625,0.01981493830680847,0.06190266087651253
0.04149999999999998,0.04518847167491913,0.00030517578125,0.01948041282594204,0.06168852373957634
0.04200000000000004,0.04517572000622749,0.0006103515625,0.01960044912993908,0.06101967394351959
0.04249999999999998,0.04516353830695152,0.00030517578125,0.01895086281001568,0.061828114092350006
0.04300000000000004,0.04515080526471138,0.00030517578125,0.019231049343943596,0.06151696294546127
0.04349999999999998,0.04513836279511452,0.0006103515625,0.018717950209975243,0.061121534556150436
0.04400000000000004,0.045125726610422134,0.00091552734375,0.01840309426188469,0.06041659787297249
0.044499999999999984,0.04511290416121483,0.0006103515625,0.018153367564082146,0.062527135014534
0.04500000000000004,0.04510049894452095,0.0006103515625,0.018177038058638573,0.06142491102218628
0.045499999999999985,0.04508768767118454,0.0006103515625,0.018031293526291847,0.060622554272413254
0.04600000000000004,0.04507530853152275,0.00030517578125,0.017777040600776672,0.061667487025260925
0.046499999999999986,0.045062705874443054,0.0,0.017631763592362404,0.06176527962088585
0.04700000000000004,0.04504978284239769,0.0006103515625,0.01729682832956314,0.06100436672568321
0.04749999999999999,0.04503756761550903,0.0006103515625,0.017428219318389893,0.06202515959739685
0.04800000000000004,0.04502482712268829,0.00091552734375,0.01752561330795288,0.06064324080944061
0.04849999999999999,0.04501224309206009,0.00030517578125,0.01743168756365776,0.060624975711107254
0.049000000000000044,0.04499978944659233,0.0006103515625,0.016898365691304207,0.060685303062200546
0.04949999999999999,0.04498744755983353,0.0006103515625,0.017026254907250404,0.06108349934220314
0.050000000000000044,0.044974666088819504,0.00091552734375,0.016827592626214027,0.06083017215132713
0.05049999999999999,0.04496210068464279,0.00030517578125,0.016680680215358734,0.061543744057416916
0.051000000000000045,0.04494987800717354,0.00030517578125,0.016490235924720764,0.06171978637576103
0.05149999999999999,0.04493715614080429,0.0,0.01602773182094097,0.060422495007514954
0.052000000000000046,0.044925179332494736,0.0,0.015641992911696434,0.06170515716075897
0.05249999999999999,0.04491221532225609,0.00030517578125,0.016016745939850807,0.061443131417036057
0.05300000000000005,0.044899873435497284,0.0006103515625,0.01604919321835041,0.0613764263689518
0.05349999999999999,0.044887371361255646,0.00030517578125,0.01589713618159294,0.061704687774181366
0.05400000000000005,0.044874683022499084,0.00030517578125,0.016043895855545998,0.06072685495018959
0.05449999999999999,0.04486227035522461,0.0,0.015868665650486946,0.061380207538604736
0.05500000000000005,0.044849470257759094,0.00030517578125,0.015090230852365494,0.06115223467350006
0.055499999999999994,0.04483722895383835,0.0006103515625,0.015165047720074654,0.061453334987163544
0.05600000000000005,0.04482457414269447,0.0006103515625,0.01487022079527378,0.061881501227617264
0.056499999999999995,0.044812072068452835,0.0006103515625,0.015047035180032253,0.0615704320371151
0.05700000000000005,0.04479974880814552,0.00030517578125,0.014849841594696045,0.06106673926115036
0.057499999999999996,0.04478694498538971,0.0006103515625,0.015245684422552586,0.06014284864068031
0.05800000000000005,0.04477476701140404,0.00030517578125,0.014760686084628105,0.06175202876329422
0.058499999999999996,0.044761743396520615,0.00091552734375,0.014210882596671581,0.06033610925078392
0.05900000000000005,0.04474952444434166,0.0006103515625,0.014102925546467304,0.061405859887599945
0.0595,0.044737108051776886,0.00030517578125,0.014532369561493397,0.06044419854879379
0.06000000000000005,0.04472450539469719,0.00030517578125,0.014262188225984573,0.06048652529716492
0.0605,0.0447121262550354,0.00030517578125,0.013808926567435265,0.06146122142672539
0.061000000000000054,0.0446992889046669,0.00030517578125,0.014070248231291771,0.060796741396188736
0.0615,0.0446867011487484,0.00030517578125,0.013923398219048977,0.062179647386074066
0.062000000000000055,0.04467429220676422,0.00030517578125,0.013609252870082855,0.0611836202442646
0.0625,0.044661592692136765,0.0006103515625,0.013317127712070942,0.060100506991147995
0.06299999999999994,0.04464951530098915,0.00030517578125,0.013575240038335323,0.060841791331768036
0.0635,0.044636644423007965,0.00030517578125,0.01283094473183155,0.06096126511693001
0.06399999999999995,0.04462440684437752,0.00030517578125,0.012828568927943707,0.06163070350885391
0.0645,0.04461143538355827,0.00030517578125,0.012652168981730938,0.06058616191148758
0.06499999999999995,0.04459895193576813,0.00091552734375,0.01274201087653637,0.06135336309671402
0.0655,0.04458659142255783,0.001220703125,0.012861392460763454,0.06067347154021263
0.06599999999999995,0.04457375034689903,0.00030517578125,0.01242329366505146,0.060246434062719345
0.0665,0.04456140846014023,0.0006103515625,0.012460893020033836,0.0606379508972168
0.06699999999999995,0.04454883188009262,0.00030517578125,0.011972110718488693,0.06032465398311615
0.0675,0.04453619197010994,0.0006103515625,0.012076254934072495,0.06224038451910019
0.06799999999999995,0.04452398046851158,0.00030517578125,0.012028461322188377,0.06101366505026817
0.0685,0.04451122507452965,0.0006103515625,0.011269154958426952,0.0605771541595459
0.06899999999999995,0.04449889063835144,0.0006103515625,0.011136573739349842,0.06052098795771599
0.0695,0.04448602348566055,0.0006103515625,0.011511372402310371,0.06046346575021744
0.06999999999999995,0.04447387903928757,-0.00030517578125,0.010762078687548637,0.06167275458574295
0.07050000000000001,0.04446140304207802,0.00030517578125,0.010378927923738956,0.06107906252145767
0.07099999999999995,0.044448547065258026,0.0006103515625,0.010484933853149414,0.06035638228058815
0.07150000000000001,0.04443613439798355,0.0006103515625,0.010308311320841312,0.060200393199920654
0.07199999999999995,0.04442346841096878,0.00030517578125,0.010213109664618969,0.06173105537891388
0.07250000000000001,0.044410914182662964,0.0,0.009881140664219856,0.06117997318506241
0.07299999999999995,0.04439851641654968,0.0006103515625,0.009404043667018414,0.061111707240343094
0.07350000000000001,0.04438560828566551,0.00030517578125,0.009670693427324295,0.06141884624958038
0.07399999999999995,0.044373463839292526,0.0,0.00937558151781559,0.06170029193162918
0.07450000000000001,0.04436070844531059,0.0006103515625,0.008995544165372849,0.06075937673449516
0.07499999999999996,0.04434867575764656,0.0,0.008932651951909065,0.061956241726875305
0.07550000000000001,0.04433554783463478,0.0006103515625,0.008670158684253693,0.06168869882822037
0.07599999999999996,0.044322770088911057,0.0,0.008289466612040997,0.061010975390672684
0.07650000000000001,0.04431084915995598,0.00091552734375,0.008110297843813896,0.061373837292194366
0.07699999999999996,0.04429776594042778,0.00030517578125,0.008238770999014378,0.06051452085375786
0.07750000000000001,0.044285595417022705,0.00091552734375,0.008024180307984352,0.060879260301589966
0.07799999999999996,0.0442727729678154,0.0006103515625,0.007368370424956083,0.061062466353178024
0.07850000000000001,0.0442604124546051,0.00030517578125,0.007726244628429413,0.06149519979953766
0.07899999999999996,0.04424744099378586,0.00030517578125,0.007231620140373707,0.061045967042446136
0.07950000000000002,0.044234972447156906,0.00091552734375,0.007268103305250406,0.06035129353404045
0.07999999999999996,0.044222570955753326,0.0006103515625,0.00720570795238018,0.06136486306786537
0.08050000000000002,0.04420987516641617,0.0006103515625,0.0064191268756985664,0.06069842353463173
0.08099999999999996,0.04419758915901184,0.00030517578125,0.00662239920347929,0.06110517680644989
0.08150000000000002,0.044184789061546326,0.00030517578125,0.0060842568054795265,0.060667648911476135
0.08199999999999996,0.04417223483324051,0.00030517578125,0.006068549584597349,0.061736300587654114
0.08250000000000002,0.044159892946481705,0.00030517578125,0.006221590097993612,0.06099135801196098
0.08299999999999996,0.04414720460772514,0.0,0.005921949166804552,0.059492286294698715
0.08350000000000002,0.04413486644625664,0.00030517578125,0.00565442955121398,0.06116793304681778
0.08399999999999996,0.04412214830517769,0.0006103515625,0.005594190210103989,0.06028418987989426
0.08450000000000002,0.044109784066677094,0.00030517578125,0.005504020489752293,0.06101881340146065
0.08499999999999996,0.04409690573811531,0.00091552734375,0.005046965088695288,0.06112236902117729
0.08550000000000002,0.0440843440592289,0.0006103515625,0.004722330719232559,0.06097755581140518
0.08599999999999997,0.044072408229112625,0.00030517578125,0.005163847468793392,0.060775913298130035
0.08650000000000002,0.04405964910984039,0.0006103515625,0.005053029395639896,0.06173470616340637
0.08699999999999997,0.04404699429869652,0.0,0.00438791885972023,0.06187957897782326
0.08750000000000002,0.04403458908200264,0.00091552734375,0.004865701775997877,0.061300329864025116
0.08799999999999997,0.04402204975485802,0.00030517578125,0.004450047388672829,0.06082076206803322
0.08850000000000002,0.0440094992518425,0.0006103515625,0.004128211177885532,0.06108253821730614
0.08899999999999997,0.04399677738547325,0.00030517578125,0.00398764293640852,0.06143173575401306
0.08950000000000002,0.04398437216877937,0.00091552734375,0.004173095338046551,0.06087629497051239
0.08999999999999997,0.043971821665763855,0.00030517578125,0.003875918220728636,0.0607307143509388
0.09050000000000002,0.043959006667137146,0.00030517578125,0.003720934269949794,0.060265496373176575
0.09099999999999997,0.04394681379199028,0.00030517578125,0.004198592621833086,0.06119842454791069
0.09150000000000003,0.04393409192562103,0.0006103515625,0.0035221795551478863,0.060436803847551346
0.09199999999999997,0.04392166808247566,0.00091552734375,0.0034268181771039963,0.06157739460468292
0.09250000000000003,0.04390895366668701,0.00091552734375,0.0036335019394755363,0.06066353991627693
0.09299999999999997,0.04389655962586403,0.0006103515625,0.0036800410598516464,0.06163340061903
0.09350000000000003,0.043883878737688065,0.00030517578125,0.0029328209348022938,0.06102195382118225
0.09399999999999997,0.04387151077389717,0.00091552734375,0.0031988387927412987,0.06149931997060776
0.09450000000000003,0.04385929927229881,0.0006103515625,0.002905749250203371,0.06236725300550461
0.09499999999999997,0.04384603723883629,0.0006103515625,0.0030007921159267426,0.06106562912464142
0.09550000000000003,0.04383393004536629,0.00030517578125,0.0031656515784561634,0.06127530336380005
0.09599999999999997,0.04382113739848137,0.00030517578125,0.0029248762875795364,0.061269257217645645
0.09650000000000003,0.0438084751367569,-0.00030517578125,0.0027305916883051395,0.06128079444169998
0.09699999999999998,0.043795909732580185,0.00030517578125,0.0025714507792145014,0.06107446178793907
0.09750000000000003,0.04378350451588631,0.0006103515625,0.0030340664088726044,0.060235872864723206
0.09799999999999998,0.043771062046289444,0.0006103515625,0.0021420347038656473,0.06257357448339462
0.09850000000000003,0.04375806078314781,0.00030517578125,0.0021580385509878397,0.0609707348048687
0.09899999999999998,0.043745823204517365,0.00030517578125,0.0024806021247059107,0.06213498115539551
0.09950000000000003,0.04373333603143692,0.00030517578125,0.002344151958823204,0.062004558742046356
0.09999999999999998,0.043720781803131104,0.0006103515625,0.0016800377052277327,0.060995668172836304
0.10050000000000003,0.043708436191082,0.0,0.0018989450763911009,0.06132316216826439
0.10099999999999998,0.043695803731679916,0.00030517578125,0.0022745418827980757,0.06152643263339996
0.10150000000000003,0.04368297755718231,0.00030517578125,0.0021413539070636034,0.061390671879053116
0.10199999999999998,0.04367038980126381,0.00030517578125,0.0020809415727853775,0.05973498150706291
0.10250000000000004,0.04365798458456993,0.0,0.00175322440918535,0.060694966465234756
0.10299999999999998,0.043645747005939484,0.00091552734375,0.0015309862792491913,0.06148974224925041
0.10350000000000004,0.043632570654153824,0.00030517578125,0.001902016461826861,0.06061284616589546
