Time [s],Lmtc [m],STIM [ ],fGM [N],fGL [N]
0.0,0.04600656405091286,0.0006103515625,0.07009998708963394,0.06138234585523605
0.0004999999999999449,0.0460064597427845,0.00091552734375,0.07016214728355408,0.0625733733177185
0.0010000000000000009,0.0460064560174942,0.0006103515625,0.07025422155857086,0.061532165855169296
0.0014999999999999458,0.046006761491298676,0.00030517578125,0.07016580551862717,0.06257548183202744
0.0020000000000000018,0.04600656405091286,0.00030517578125,0.06991396844387054,0.0612831711769104
0.0024999999999999467,0.046006377786397934,0.0,0.0701509490609169,0.0617869533598423
0.0030000000000000027,0.046006761491298676,0.00030517578125,0.06987942010164261,0.06233638525009155
0.0034999999999999476,0.046006616204977036,0.00030517578125,0.07000891119241714,0.06141652911901474
0.0040000000000000036,0.04600661247968674,0.0006103515625,0.07014792412519455,0.06253571063280106
0.0044999999999999485,0.04600636661052704,0.0,0.06995974481105804,0.06149021536111832
0.0050000000000000044,0.04600660130381584,0.00030517578125,0.07020625472068787,0.061995673924684525
0.005499999999999949,0.046006835997104645,0.00091552734375,0.06988665461540222,0.06223729997873306
0.006000000000000005,0.04600659757852554,0.00091552734375,0.06963425129652023,0.06155436486005783
0.00649999999999995,0.04600661247968674,0.0006103515625,0.06885629892349243,0.06256240606307983
0.007000000000000006,0.04600589722394943,0.00030517578125,0.06722895801067352,0.06156650930643082
0.007499999999999951,0.0460045225918293,0.0,0.06548365950584412,0.06201491877436638
0.008000000000000007,0.04600206017494202,0.0006103515625,0.06173240765929222,0.06235367804765701
0.008499999999999952,0.045997850596904755,0.00091552734375,0.05793154239654541,0.06105094775557518
0.009000000000000008,0.04599151760339737,0.0006103515625,0.053119003772735596,0.06249023228883743
0.009499999999999953,0.04598309099674225,0.0,0.04818059131503105,0.06153114140033722
0.010000000000000009,0.04597271978855133,0.00030517578125,0.043560583144426346,0.06190189719200134
0.010499999999999954,0.045960016548633575,0.0006103515625,0.04036528617143631,0.06212679669260979
0.01100000000000001,0.045945726335048676,0.0006103515625,0.036335017532110214,0.06222793087363243
0.011499999999999955,0.045930322259664536,0.00030517578125,0.03380303829908371,0.0624120831489563
0.01200000000000001,0.04591364786028862,0.00030517578125,0.03172873333096504,0.06125524267554283
0.012499999999999956,0.04589597135782242,0.00030517578125,0.029979705810546875,0.061274461448192596
0.013000000000000012,0.0458780974149704,0.0006103515625,0.028633572161197662,0.0617777444422245
0.013499999999999956,0.04585948586463928,0.001220703125,0.027746522799134254,0.06167880445718765
0.014000000000000012,0.04584183543920517,0.0006103515625,0.02716820500791073,0.06255828589200974
0.014499999999999957,0.04582320898771286,0.0006103515625,0.026605838909745216,0.06108078733086586
0.015000000000000013,0.04580487683415413,0.00030517578125,0.026183292269706726,0.06257370859384537
0.015499999999999958,0.04578666761517525,0.00091552734375,0.02561085671186447,0.061721403151750565
0.016000000000000014,0.04576854035258293,0.0006103515625,0.025343015789985657,0.062491971999406815
0.01649999999999996,0.045750733464956284,0.00030517578125,0.025339262560009956,0.062319979071617126
0.017000000000000015,0.0457330197095871,0.00030517578125,0.024553537368774414,0.06102384254336357
0.01749999999999996,0.045715250074863434,0.00091552734375,0.023930959403514862,0.06181744113564491
0.018000000000000016,0.04569743573665619,0.0006103515625,0.023374022915959358,0.06098604574799538
0.01849999999999996,0.045679718255996704,0.0006103515625,0.023116527125239372,0.06158636137843132
0.019000000000000017,0.045661959797143936,0.0006103515625,0.02277471125125885,0.06152734160423279
0.019499999999999962,0.04564441740512848,0.0006103515625,0.021591180935502052,0.06078552454710007
0.020000000000000018,0.04562700539827347,0.0,0.021567799150943756,0.06287811696529388
0.020499999999999963,0.04560917243361473,0.0006103515625,0.0213589109480381,0.06086144968867302
0.02100000000000002,0.04559128358960152,0.00091552734375,0.020868780091404915,0.06141131371259689
0.021499999999999964,0.045573607087135315,0.00030517578125,0.020741460844874382,0.06156885251402855
0.02200000000000002,0.045555733144283295,0.00030517578125,0.020435867831110954,0.060844164341688156
0.022499999999999964,0.04553798586130142,0.00030517578125,0.02045164816081524,0.06181958317756653
0.02300000000000002,0.045520346611738205,0.00030517578125,0.019778957590460777,0.061273280531167984
0.023499999999999965,0.04550209641456604,0.0006103515625,0.020044704899191856,0.06180184707045555
0.02400000000000002,0.045484885573387146,0.00091552734375,0.01984945684671402,0.06118112802505493
0.024499999999999966,0.04546671733260155,0.00030517578125,0.01942463032901287,0.06145848333835602
0.025000000000000022,0.045449402183294296,0.00030517578125,0.02018965221941471,0.0621151328086853
0.025499999999999967,0.04543155059218407,0.0,0.01931500993669033,0.06151846796274185
0.026000000000000023,0.04541357234120369,0.001220703125,0.0192594975233078,0.061993882060050964
0.026499999999999968,0.045395903289318085,0.0006103515625,0.019551865756511688,0.06190295144915581
0.027000000000000024,0.045377857983112335,0.0006103515625,0.019367683678865433,0.06130320206284523
0.02749999999999997,0.04536016657948494,0.00030517578125,0.019651714712381363,0.061205118894577026
0.028000000000000025,0.04534251615405083,0.0006103515625,0.01951064169406891,0.06110462546348572
0.02849999999999997,0.04532497376203537,0.0,0.019651124253869057,0.06211806461215019
0.029000000000000026,0.045306913554668427,0.0006103515625,0.01991574838757515,0.06198633462190628
0.02949999999999997,0.04528951272368431,0.001220703125,0.019268831238150597,0.06197245791554451
0.030000000000000027,0.045271821320056915,0.0006103515625,0.019602127373218536,0.06144414842128754
0.03049999999999997,0.04525398835539818,0.0,0.01973891258239746,0.06184215843677521
0.031000000000000028,0.045235954225063324,0.00030517578125,0.01972511038184166,0.06157100945711136
0.03149999999999997,0.0452185682952404,0.00091552734375,0.020037297159433365,0.0608806349337101
0.03200000000000003,0.045200686901807785,0.0,0.019975194707512856,0.06201624870300293
0.03249999999999997,0.045182857662439346,0.0006103515625,0.020088037475943565,0.06085978075861931
0.03300000000000003,0.04516531154513359,0.0006103515625,0.019948549568653107,0.06157355755567551
0.033499999999999974,0.04514748603105545,0.00030517578125,0.020005345344543457,0.061382830142974854
0.03400000000000003,0.04512972757220268,0.00091552734375,0.020546484738588333,0.06180983781814575
0.034499999999999975,0.04511181265115738,0.00091552734375,0.01989072933793068,0.061820317059755325
0.03500000000000003,0.045094333589076996,0.0006103515625,0.020531702786684036,0.06174859404563904
0.035499999999999976,0.04507651925086975,0.00030517578125,0.020736858248710632,0.06162424385547638
0.03600000000000003,0.045058473944664,0.00030517578125,0.020601090043783188,0.062153782695531845
0.03649999999999998,0.045041076838970184,0.00030517578125,0.020618028938770294,0.0612022690474987
0.03700000000000003,0.04502324387431145,0.0006103515625,0.020530376583337784,0.061478156596422195
0.03749999999999998,0.04500540345907211,0.00091552734375,0.020851412788033485,0.06223881617188454
0.038000000000000034,0.044987715780735016,0.00030517578125,0.021119367331266403,0.06171213462948799
0.03849999999999998,0.04497021436691284,0.00091552734375,0.021311262622475624,0.06163183972239494
0.039000000000000035,0.04495277255773544,0.0,0.02094646543264389,0.06105682626366615
0.03949999999999998,0.044934581965208054,0.00030517578125,0.02102012000977993,0.061098549515008926
0.040000000000000036,0.04491712152957916,0.0006103515625,0.020970618352293968,0.06167509779334068
0.04049999999999998,0.04489969462156296,0.00091552734375,0.02080892212688923,0.06161211431026459
0.041000000000000036,0.044881485402584076,0.0006103515625,0.020495031028985977,0.06125873327255249
0.04149999999999998,0.04486427828669548,0.00030517578125,0.020581187680363655,0.06182819977402687
0.04200000000000004,0.04484660550951958,0.0,0.02023855224251747,0.0614464208483696
0.04249999999999998,0.04482908174395561,0.00030517578125,0.020069900900125504,0.06186535581946373
0.04300000000000004,0.04481120407581329,0.00030517578125,0.01948547177016735,0.06263870000839233
0.04349999999999998,0.04479355737566948,0.00030517578125,0.0195847786962986,0.06140146404504776
0.04400000000000004,0.04477602243423462,0.0006103515625,0.019553430378437042,0.06139446049928665
0.044499999999999984,0.04475793614983559,-0.00030517578125,0.018750790506601334,0.061372727155685425
0.04500000000000004,0.04474053159356117,0.0,0.01881701685488224,0.061835579574108124
0.045499999999999985,0.044722843915224075,0.0006103515625,0.01809474639594555,0.06184966862201691
0.04600000000000004,0.04470488801598549,0.0006103515625,0.01779129169881344,0.06084217131137848
0.046499999999999986,0.044687364250421524,0.00030517578125,0.017481284216046333,0.062018249183893204
0.04700000000000004,0.04466976597905159,0.0006103515625,0.01729382388293743,0.06231075897812843
0.04749999999999999,0.04465195909142494,0.0006103515625,0.01706555299460888,0.06156987324357033
0.04800000000000004,0.04463411867618561,0.0006103515625,0.01630108803510666,0.06130538508296013
0.04849999999999999,0.04461627081036568,0.00030517578125,0.016308806836605072,0.060650210827589035
0.049000000000000044,0.04459892958402634,0.00091552734375,0.016141191124916077,0.06171067804098129
0.04949999999999999,0.044580694288015366,0.00030517578125,0.015367535874247551,0.06057960167527199
0.050000000000000044,0.04456344619393349,0.0006103515625,0.015302357263863087,0.06173403188586235
0.05049999999999999,0.04454553872346878,0.0006103515625,0.014556030742824078,0.0619363859295845
0.051000000000000045,0.04452727362513542,0.0006103515625,0.014257200062274933,0.06115355342626572
0.05149999999999999,0.04451046884059906,0.0006103515625,0.013976187445223331,0.06213676184415817
0.052000000000000046,0.044492337852716446,0.0006103515625,0.014108467847108841,0.06157362088561058
0.05249999999999999,0.04447466880083084,0.00030517578125,0.013400792144238949,0.06051655858755112
0.05300000000000005,0.044457025825977325,0.0,0.01305606309324503,0.06082608550786972
0.05349999999999999,0.04443933442234993,0.00030517578125,0.012593736872076988,0.06079396605491638
0.05400000000000005,0.04442155361175537,0.00030517578125,0.01260558795183897,0.06117147579789162
0.05449999999999999,0.044403355568647385,0.00030517578125,0.012282171286642551,0.06014091521501541
0.05500000000000005,0.044386107474565506,0.0006103515625,0.012000893242657185,0.06141366437077522
0.055499999999999994,0.04436822235584259,0.0006103515625,0.012203402817249298,0.061331648379564285
0.05600000000000005,0.04435035586357117,0.0006103515625,0.011220653541386127,0.06088174134492874
0.056499999999999995,0.04433270916342735,0.0,0.01145060732960701,0.06139206141233444
0.05700000000000005,0.044314898550510406,0.0,0.011004342697560787,0.060675110667943954
0.057499999999999996,0.04429743066430092,0.00030517578125,0.010735857300460339,0.06156208738684654
0.05800000000000005,0.04427957534790039,-0.00030517578125,0.01008801069110632,0.06069888174533844
0.058499999999999996,0.04426146671175957,0.0006103515625,0.010285141877830029,0.059672802686691284
0.05900000000000005,0.044244036078453064,0.00091552734375,0.010192438960075378,0.06095024198293686
0.0595,0.044226109981536865,0.00091552734375,0.009154623374342918,0.060365136712789536
0.06000000000000005,0.04420857131481171,0.0,0.009520798921585083,0.06111149489879608
0.0605,0.04419087618589401,0.00030517578125,0.009273211471736431,0.06138072907924652
0.061000000000000054,0.04417291283607483,0.00030517578125,0.008725629188120365,0.05947358161211014
0.0615,0.04415541887283325,0.00091552734375,0.00877988338470459,0.061590369790792465
0.062000000000000055,0.044137872755527496,0.00091552734375,0.008343460969626904,0.05962859094142914
0.0625,0.04412001371383667,0.0,0.007757673505693674,0.06122758612036705
0.06299999999999994,0.04410224035382271,0.0006103515625,0.007242036517709494,0.06107616797089577
0.0635,0.044084418565034866,0.0006103515625,0.006718314718455076,0.06058145686984062
0.06399999999999995,0.044066980481147766,0.00030517578125,0.006483620963990688,0.06136155128479004
0.0645,0.044049084186553955,0.00030517578125,0.00625420268625021,0.06004537269473076
0.06499999999999995,0.044031575322151184,0.00091552734375,0.005669999402016401,0.06188422814011574
0.0655,0.04401379078626633,0.0006103515625,0.00532923499122262,0.06048428639769554
0.06599999999999995,0.04399602487683296,0.0006103515625,0.005281461868435144,0.05990024656057358
0.0665,0.04397837445139885,0.00091552734375,0.0050323354080319405,0.06118946895003319
0.06699999999999995,0.04396030679345131,0.0006103515625,0.004973628092557192,0.060789354145526886
0.0675,0.043942857533693314,0.0006103515625,0.0046720243990421295,0.061779964715242386
0.06799999999999995,0.04392519220709801,0.0006103515625,0.0037101740017533302,0.06096287816762924
0.0685,0.04390726611018181,0.0006103515625,0.004001062363386154,0.0612681545317173
0.06899999999999995,0.043889690190553665,0.00091552734375,0.003909613937139511,0.061346668750047684
0.0695,0.0438716746866703,0.00030517578125,0.003353517735376954,0.06088745966553688
0.06999999999999995,0.043853964656591415,-0.00030517578125,0.003046812489628792,0.06171810254454613
0.07050000000000001,0.043836433440446854,0.00030517578125,0.003755186917260289,0.06070565804839134
0.07099999999999995,0.043818503618240356,0.0006103515625,0.0025017685256898403,0.06096899136900902
0.07150000000000001,0.043800853192806244,0.00030517578125,0.0028046465013176203,0.06115294247865677
0.07199999999999995,0.043782901018857956,0.0,0.002362498315051198,0.06070323288440704
0.07250000000000001,0.04376545175909996,0.0006103515625,0.001785801723599434,0.061515308916568756
0.07299999999999995,0.043747708201408386,0.001220703125,0.0021002315916121006,0.05993616580963135
0.07350000000000001,0.043729472905397415,0.00091552734375,0.0019322495209053159,0.06156391277909279
0.07399999999999995,0.04371219873428345,0.00091552734375,0.0015050102956593037,0.06227683275938034
0.07450000000000001,0.04369440674781799,0.0006103515625,0.0011826441623270512,0.06071360781788826
0.07499999999999996,0.04367682710289955,0.0006103515625,0.0015604112995788455,0.06161511316895485
0.07550000000000001,0.04365871101617813,0.00030517578125,0.0011089433683082461,0.061101123690605164
0.07599999999999996,0.04364106431603432,0.0006103515625,0.0010565092088654637,0.06130428612232208
0.07650000000000001,0.0436236709356308,0.0,0.0005819738144055009,0.06131208688020706
0.07699999999999996,0.04360571131110191,0.00030517578125,0.0004713521047960967,0.061169371008872986
0.07750000000000001,0.04358772933483124,0.00030517578125,0.0007751272059977055,0.0611933171749115
0.07799999999999996,0.043570008128881454,0.0006103515625,0.0004290164797566831,0.060917019844055176
0.07850000000000001,0.04355223476886749,0.0006103515625,0.0006140342447906733,0.061400339007377625
0.07899999999999996,0.04353463649749756,0.0006103515625,7.272431685123593e-05,0.06073346361517906
0.07950000000000002,0.04351664334535599,0.0006103515625,-0.00022141265799291432,0.06050039082765579
0.07999999999999996,0.043499138206243515,0.00030517578125,5.4556432587560266e-05,0.06201859563589096
0.08050000000000002,0.04348141700029373,0.00030517578125,-0.00022134894970804453,0.06075352057814598
0.08099999999999996,0.04346330836415291,0.00030517578125,-0.0004186475707683712,0.06100070849061012
0.08150000000000002,0.04344569519162178,0.0006103515625,-0.00023440700897481292,0.06130530685186386
0.08199999999999996,0.04342811182141304,0.0006103515625,-0.0007083826931193471,0.061021964997053146
0.08250000000000002,0.04341023415327072,0.00030517578125,9.140363545157015e-06,0.06182318553328514
0.08299999999999996,0.04339268058538437,0.0,-0.0008191991364583373,0.060820579528808594
0.08350000000000002,0.043374959379434586,0.00091552734375,-0.000553280464373529,0.06189966946840286
0.08399999999999996,0.04335738718509674,0.0006103515625,-0.0006573854479938745,0.061709970235824585
0.08450000000000002,0.04333946108818054,-0.00030517578125,-0.0012728034052997828,0.06117647513747215
0.08499999999999996,0.04332226142287254,0.00091552734375,-0.00103128666523844,0.06055011600255966
0.08550000000000002,0.043304283171892166,0.00091552734375,-0.0013922186335548759,0.06118946522474289
0.08599999999999997,0.04328640550374985,0.00091552734375,-0.0015083701582625508,0.06152528151869774
0.08650000000000002,0.04326877370476723,0.00030517578125,-0.0017236737767234445,0.061155859380960464
0.08699999999999997,0.04325120523571968,0.00091552734375,-0.0016374036204069853,0.061679959297180176
0.08750000000000002,0.043233662843704224,0.0,-0.0013311905786395073,0.06251394748687744
0.08799999999999997,0.04321581870317459,0.0006103515625,-0.0014124222798272967,0.06140630319714546
0.08850000000000002,0.04319782555103302,0.00091552734375,-0.0012330031022429466,0.061744049191474915
0.08899999999999997,0.043180644512176514,0.00091552734375,-0.001631765509955585,0.06176694855093956
0.08950000000000002,0.04316247999668121,0.00091552734375,-0.002398550044745207,0.061560966074466705
0.08999999999999997,0.04314468801021576,0.00030517578125,-0.0019004844361916184,0.06167013943195343
0.09050000000000002,0.04312718287110329,0.00091552734375,-0.0017953115748241544,0.0615178681910038
0.09099999999999997,0.04310925677418709,0.00030517578125,-0.0020311863627284765,0.06147906929254532
0.09150000000000003,0.043091706931591034,0.0006103515625,-0.0021292546298354864,0.06169896572828293
0.09199999999999997,0.04307381063699722,0.0006103515625,-0.002082990948110819,0.06189342588186264
0.09250000000000003,0.04305616021156311,0.00091552734375,-0.0024662755895406008,0.06121649220585823
0.09299999999999997,0.04303855448961258,-0.00030517578125,-0.0025414929259568453,0.06121794506907463
0.09350000000000003,0.04302036389708519,0.00030517578125,-0.0028694106731563807,0.06130405142903328
0.09399999999999997,0.043003007769584656,0.00030517578125,-0.0027001933194696903,0.06126251071691513
0.09450000000000003,0.04298512637615204,0.0,-0.0029907994903624058,0.06145015358924866
0.09499999999999997,0.04296756163239479,0.00030517578125,-0.002461141673848033,0.06178613379597664
0.09550000000000003,0.042950015515089035,-0.00030517578125,-0.003164589172229171,0.06161653622984886
0.09599999999999997,0.04293208196759224,0.00030517578125,-0.003120866371318698,0.06140926852822304
0.09650000000000003,0.04291479289531708,0.00030517578125,-0.003117039566859603,0.06165355071425438
0.09699999999999998,0.0428965762257576,0.0006103515625,-0.0033148524817079306,0.06179097294807434
0.09750000000000003,0.0428788848221302,0.00091552734375,-0.0034710620529949665,0.06102726608514786
0.09799999999999998,0.04286108911037445,0.00030517578125,-0.003186054527759552,0.060738369822502136
0.09850000000000003,0.0428432896733284,0.00030517578125,-0.0033128252252936363,0.061258453875780106
0.09899999999999998,0.04282592982053757,0.0006103515625,-0.0030162367038428783,0.060769110918045044
0.09950000000000003,0.04280771315097809,0.00030517578125,-0.003258283017203212,0.06082281842827797
0.09999999999999998,0.04279012978076935,0.0,-0.0038180856499820948,0.06138955056667328
0.10050000000000003,0.04277271777391434,0.0006103515625,-0.0038982590194791555,0.062132272869348526
0.10099999999999998,0.042754560708999634,0.0006103515625,-0.0037125537637621164,0.060891106724739075
0.10150000000000003,0.04273690655827522,-0.00030517578125,-0.003396553685888648,0.06115435063838959
0.10199999999999998,0.04271912947297096,0.00030517578125,-0.00368292722851038,0.060572102665901184
0.10250000000000004,0.04270153120160103,0.0006103515625,-0.0035951477475464344,0.061510585248470306
0.10299999999999998,0.04268379136919975,0.0006103515625,-0.003932197578251362,0.06130240857601166
