Time [s],Lmtc [m],STIM [ ],fGM [N],fGL [N]
0.0,0.04600667953491211,0.00030517578125,0.06885158270597458,0.06198685243725777
0.0004999999999999449,0.04600665718317032,0.0006103515625,0.06830048561096191,0.0622837133705616
0.0010000000000000009,0.04600612819194794,0.00091552734375,0.06859517097473145,0.06115689128637314
0.0014999999999999458,0.04600665345788002,0.00030517578125,0.0685664489865303,0.061006538569927216
0.0020000000000000018,0.04600623995065689,0.00030517578125,0.06843827664852142,0.061914585530757904
0.0024999999999999467,0.046006686985492706,0.0,0.06841055303812027,0.06237189471721649
0.0030000000000000027,0.04600635915994644,0.0,0.06828116625547409,0.06176782771945
0.0034999999999999476,0.0460066981613636,0.00030517578125,0.06878993660211563,0.062241800129413605
0.0040000000000000036,0.04600657895207405,0.0006103515625,0.06822522729635239,0.06207317113876343
0.0044999999999999485,0.04600636661052704,0.0,0.06828397512435913,0.06193951517343521
0.0050000000000000044,0.046007100492715836,0.0006103515625,0.06829225271940231,0.06277219206094742
0.005499999999999949,0.04600667953491211,0.0006103515625,0.06834061443805695,0.06225316971540451
0.006000000000000005,0.04600660130381584,0.00030517578125,0.06880731880664825,0.061976782977581024
0.00649999999999995,0.04600656032562256,0.0006103515625,0.0676463320851326,0.06140099838376045
0.007000000000000006,0.04600617289543152,0.0006103515625,0.06783965229988098,0.061940714716911316
0.007499999999999951,0.046005696058273315,0.00030517578125,0.06714151799678802,0.062131550163030624
0.008000000000000007,0.04600493237376213,0.00091552734375,0.06519871205091476,0.0612235963344574
0.008499999999999952,0.04600375145673752,0.0006103515625,0.0635719820857048,0.06291783601045609
0.009000000000000008,0.04600032418966293,0.0006103515625,0.0599396713078022,0.0626731887459755
0.009499999999999953,0.04599627107381821,0.00030517578125,0.05668405815958977,0.06085435673594475
0.010000000000000009,0.04599038138985634,0.0006103515625,0.0530395470559597,0.06197987124323845
0.010499999999999954,0.045982737094163895,0.0006103515625,0.049676381051540375,0.06156168505549431
0.01100000000000001,0.04597388207912445,0.00030517578125,0.04662509262561798,0.062480486929416656
0.011499999999999955,0.04596375301480293,0.0006103515625,0.04440365359187126,0.06143637001514435
0.01200000000000001,0.04595309495925903,0.00030517578125,0.042286358773708344,0.062146689742803574
0.012499999999999956,0.04594120755791664,0.00030517578125,0.040696881711483,0.06131453439593315
0.013000000000000012,0.04592963680624962,0.00030517578125,0.03928432986140251,0.06085200235247612
0.013499999999999956,0.045918017625808716,0.0006103515625,0.03817659988999367,0.062069933861494064
0.014000000000000012,0.045905690640211105,0.00030517578125,0.03723985701799393,0.06160341575741768
0.014499999999999957,0.045893650501966476,0.0,0.036540012806653976,0.06140697002410889
0.015000000000000013,0.04588142782449722,0.0006103515625,0.036213457584381104,0.060694336891174316
0.015499999999999958,0.04586940258741379,0.0006103515625,0.034758083522319794,0.06174794211983681
0.016000000000000014,0.04585760459303856,0.00030517578125,0.03473898768424988,0.06118527427315712
0.01649999999999996,0.04584558308124542,0.0006103515625,0.034498345106840134,0.060587212443351746
0.017000000000000015,0.04583407938480377,0.00091552734375,0.03450056537985802,0.06230664253234863
0.01749999999999996,0.04582183435559273,0.0006103515625,0.03385941684246063,0.06095907464623451
0.018000000000000016,0.045810140669345856,0.00030517578125,0.033665046095848083,0.06130635365843773
0.01849999999999996,0.0457986481487751,0.00091552734375,0.03376559540629387,0.0613861046731472
0.019000000000000017,0.04578656330704689,0.0006103515625,0.033154990524053574,0.0617041178047657
0.019499999999999962,0.04577552527189255,0.0,0.032963741570711136,0.06238843500614166
0.020000000000000018,0.04576390981674194,0.00030517578125,0.03234555199742317,0.06170005723834038
0.020499999999999963,0.0457519069314003,0.0006103515625,0.03244825452566147,0.061640847474336624
0.02100000000000002,0.04574077948927879,0.00091552734375,0.03173644095659256,0.06069952994585037
0.021499999999999964,0.04572906717658043,0.00091552734375,0.03166729211807251,0.06071517989039421
0.02200000000000002,0.04571760445833206,0.00030517578125,0.031227631494402885,0.061289381235837936
0.022499999999999964,0.04570581391453743,0.00030517578125,0.030512934550642967,0.06086893752217293
0.02300000000000002,0.045694299042224884,0.00030517578125,0.030573062598705292,0.061082638800144196
0.023499999999999965,0.04568282514810562,0.0006103515625,0.02981153130531311,0.06157867982983589
0.02400000000000002,0.04567103460431099,0.00030517578125,0.029795276001095772,0.06150972098112106
0.024499999999999966,0.04565927013754845,0.00030517578125,0.0288392286747694,0.060751426964998245
0.025000000000000022,0.04564778506755829,0.00030517578125,0.028934931382536888,0.0615718811750412
0.025499999999999967,0.045636288821697235,0.00091552734375,0.028868287801742554,0.06229449063539505
0.026000000000000023,0.0456245057284832,0.0,0.028268933296203613,0.060663852840662
0.026499999999999968,0.04561267048120499,0.00030517578125,0.02833155356347561,0.06117837876081467
0.027000000000000024,0.04560120403766632,0.0006103515625,0.028220435604453087,0.061533939093351364
0.02749999999999997,0.045589372515678406,0.0,0.027399731799960136,0.06068715080618858
0.028000000000000025,0.04557821527123451,0.0006103515625,0.027749206870794296,0.06285728514194489
0.02849999999999997,0.045566365122795105,0.00030517578125,0.02763344720005989,0.061926309019327164
0.029000000000000026,0.04555465281009674,0.0006103515625,0.027150990441441536,0.061483077704906464
0.02949999999999997,0.04554326459765434,0.0,0.02692076750099659,0.06093086302280426
0.030000000000000027,0.045531388372182846,0.0,0.026688527315855026,0.06157064065337181
0.03049999999999997,0.04552015662193298,0.00030517578125,0.02672211080789566,0.061591893434524536
0.031000000000000028,0.04550783336162567,0.00030517578125,0.02620851807296276,0.061274994164705276
0.03149999999999997,0.045496534556150436,0.0006103515625,0.026627693325281143,0.06203845515847206
0.03200000000000003,0.04548458009958267,0.00030517578125,0.026205802336335182,0.062408704310655594
0.03249999999999997,0.04547319561243057,-0.00030517578125,0.02603813447058201,0.06197933107614517
0.03300000000000003,0.04546168074011803,0.0006103515625,0.025833511725068092,0.062184326350688934
0.033499999999999974,0.04544968903064728,0.001220703125,0.02562394179403782,0.061399687081575394
0.03400000000000003,0.04543863236904144,0.0006103515625,0.02550518698990345,0.061625849455595016
0.034499999999999975,0.045426782220602036,0.00030517578125,0.02489994280040264,0.0608520470559597
0.03500000000000003,0.045415349304676056,0.0006103515625,0.025146987289190292,0.06198664754629135
0.035499999999999976,0.04540344327688217,0.0006103515625,0.024773232638835907,0.06183598190546036
0.03600000000000003,0.04539194330573082,0.00030517578125,0.024632200598716736,0.06113919988274574
0.03649999999999998,0.04538032412528992,0.0006103515625,0.024587975814938545,0.061898123472929
0.03700000000000003,0.04536847397685051,0.0,0.024095846340060234,0.061252642422914505
0.03749999999999998,0.04535708203911781,0.0,0.023831920698285103,0.06129670515656471
0.038000000000000034,0.04534554481506348,0.0,0.02346530556678772,0.06149228662252426
0.03849999999999998,0.04533401131629944,0.0006103515625,0.023308150470256805,0.06143440306186676
0.039000000000000035,0.04532237350940704,0.0006103515625,0.023116039112210274,0.06181972846388817
0.03949999999999998,0.045310430228710175,0.0,0.022772688418626785,0.062213219702243805
0.040000000000000036,0.04529900848865509,0.0,0.0225356575101614,0.06184009462594986
0.04049999999999998,0.04528730735182762,0.0,0.022594092413783073,0.061713069677352905
0.041000000000000036,0.04527543857693672,0.0,0.02176514081656933,0.06182660162448883
0.04149999999999998,0.045264046639204025,0.00030517578125,0.021979620680212975,0.06132958084344864
0.04200000000000004,0.04525228962302208,0.00091552734375,0.021961307153105736,0.06156477704644203
0.04249999999999998,0.04524071887135506,0.00030517578125,0.021258825436234474,0.06198849901556969
0.04300000000000004,0.045228973031044006,0.00030517578125,0.02091442048549652,0.06029341369867325
0.04349999999999998,0.045217081904411316,0.0006103515625,0.021253885701298714,0.06131121888756752
0.04400000000000004,0.04520580172538757,0.0006103515625,0.02056431956589222,0.06194991618394852
0.044499999999999984,0.04519391804933548,0.00030517578125,0.02045779675245285,0.06147295981645584
0.04500000000000004,0.0451827347278595,0.00030517578125,0.02080870233476162,0.0615481398999691
0.045499999999999985,0.0451708622276783,0.0,0.020505905151367188,0.061827778816223145
0.04600000000000004,0.04515920206904411,0.0,0.019863605499267578,0.06136838346719742
0.046499999999999986,0.045147594064474106,0.00091552734375,0.0197597723454237,0.06188923493027687
0.04700000000000004,0.04513588547706604,0.0006103515625,0.019965579733252525,0.06135283410549164
0.04749999999999999,0.04512462019920349,0.0006103515625,0.019816743209958076,0.06062699481844902
0.04800000000000004,0.04511243849992752,0.0,0.01958475634455681,0.061622779816389084
0.04849999999999999,0.04510129615664482,0.0006103515625,0.019211139529943466,0.061201684176921844
0.049000000000000044,0.04508914798498154,0.00091552734375,0.019198903813958168,0.06129603832960129
0.04949999999999999,0.045077670365571976,0.00091552734375,0.019363343715667725,0.06118471920490265
0.050000000000000044,0.04506610333919525,0.0006103515625,0.019016483798623085,0.06148100271821022
0.05049999999999999,0.04505421966314316,0.0006103515625,0.019073015078902245,0.06163324415683746
0.051000000000000045,0.045043062418699265,0.0006103515625,0.018489563837647438,0.06197977066040039
0.05149999999999999,0.04503113776445389,0.00030517578125,0.01814354583621025,0.06172215938568115
0.052000000000000046,0.045019395649433136,0.001220703125,0.01830110140144825,0.061760313808918
0.05249999999999999,0.045007891952991486,0.00030517578125,0.017732389271259308,0.06140568107366562
0.05300000000000005,0.044996071606874466,0.00030517578125,0.017340989783406258,0.06096016988158226
0.05349999999999999,0.04498475044965744,0.0006103515625,0.018039977177977562,0.061656154692173004
0.05400000000000005,0.04497300833463669,0.0,0.017366936430335045,0.061014607548713684
0.05449999999999999,0.044961169362068176,0.0006103515625,0.017272207885980606,0.06156715378165245
0.05500000000000005,0.044949572533369064,0.00030517578125,0.017155034467577934,0.06112898886203766
0.055499999999999994,0.04493838921189308,0.0006103515625,0.017092235386371613,0.06114225089550018
0.05600000000000005,0.044927019625902176,0.0006103515625,0.01615014672279358,0.0612364262342453
0.056499999999999995,0.04491524398326874,0.0,0.016375916078686714,0.06065143272280693
0.05700000000000005,0.04490368068218231,0.00030517578125,0.016283970326185226,0.060957249253988266
0.057499999999999996,0.0448918491601944,0.00091552734375,0.015780949965119362,0.06108797714114189
0.05800000000000005,0.04488008841872215,0.00030517578125,0.015553992241621017,0.061023760586977005
0.058499999999999996,0.04486874118447304,0.0,0.015669003129005432,0.06119801849126816
0.05900000000000005,0.044856958091259,0.00030517578125,0.01534798089414835,0.0603804886341095
0.0595,0.0448455736041069,0.00030517578125,0.015039436519145966,0.061976026743650436
0.06000000000000005,0.04483342170715332,0.0,0.014373780228197575,0.06016024574637413
0.0605,0.04482213780283928,0.00091552734375,0.014716626144945621,0.061783552169799805
0.061000000000000054,0.044810451567173004,-0.00030517578125,0.01401717308908701,0.06057305261492729
0.0615,0.04479890689253807,0.00030517578125,0.014031937345862389,0.060847509652376175
0.062000000000000055,0.04478738456964493,0.00030517578125,0.014326746575534344,0.06159128621220589
0.0625,0.04477570950984955,0.00030517578125,0.013393839821219444,0.06064989045262337
0.06299999999999994,0.044764310121536255,0.0006103515625,0.01325929258018732,0.06166486814618111
0.0635,0.04475265368819237,0.00091552734375,0.013277553953230381,0.06109604239463806
0.06399999999999995,0.04474106803536415,0.00030517578125,0.013004979118704796,0.061290450394153595
0.0645,0.04472960904240608,0.00030517578125,0.012389670126140118,0.06171070411801338
0.06499999999999995,0.04471777752041817,0.00030517578125,0.012165048159658909,0.061090633273124695
0.0655,0.04470637068152428,0.0006103515625,0.012698986567556858,0.06135280057787895
0.06599999999999995,0.04469478130340576,0.0006103515625,0.011963623575866222,0.06099269539117813
0.0665,0.04468263313174248,0.0006103515625,0.011768869124352932,0.06129856035113335
0.06699999999999995,0.044671352952718735,0.0006103515625,0.011743317358195782,0.06125110387802124
0.0675,0.04465958848595619,0.0006103515625,0.011312750168144703,0.06128774210810661
0.06799999999999995,0.0446481928229332,0.00091552734375,0.011097129434347153,0.06110217794775963
0.0685,0.04463648423552513,0.0,0.010985762812197208,0.06085873767733574
0.06899999999999995,0.044624701142311096,0.00030517578125,0.010689705610275269,0.06167077273130417
0.0695,0.04461333155632019,0.001220703125,0.010286880657076836,0.06102773919701576
0.06999999999999995,0.044601306319236755,0.0006103515625,0.010663728229701519,0.06150352954864502
0.07050000000000001,0.04459000751376152,0.0006103515625,0.009805959649384022,0.06106787547469139
0.07099999999999995,0.04457826539874077,0.00030517578125,0.00994343776255846,0.06082134693861008
0.07150000000000001,0.04456706717610359,0.00030517578125,0.009642106480896473,0.061487555503845215
0.07199999999999995,0.04455512389540672,0.00030517578125,0.009723463095724583,0.06117594614624977
0.07250000000000001,0.04454338550567627,0.0006103515625,0.009701209142804146,0.06111227720975876
0.07299999999999995,0.044531963765621185,0.0,0.009209205396473408,0.061923593282699585
0.07350000000000001,0.0445198155939579,0.0006103515625,0.008983896113932133,0.06106624752283096
0.07399999999999995,0.04450889676809311,0.0006103515625,0.0088870944455266,0.06162010878324509
0.07450000000000001,0.04449690133333206,0.0006103515625,0.008160775527358055,0.06117541715502739
0.07499999999999996,0.044485367834568024,0.0,0.009011344984173775,0.06083368882536888
0.07550000000000001,0.044473566114902496,0.0,0.008468022570014,0.060734424740076065
0.07599999999999996,0.044461846351623535,0.00030517578125,0.008100886829197407,0.06066295877099037
0.07650000000000001,0.044450387358665466,0.0006103515625,0.008482242934405804,0.0619991160929203
0.07699999999999996,0.044438764452934265,0.00030517578125,0.007787655107676983,0.06055338680744171
0.07750000000000001,0.044427234679460526,0.00030517578125,0.008182205259799957,0.06115160137414932
0.07799999999999996,0.044415153563022614,0.00030517578125,0.0073608593083918095,0.06119341775774956
0.07850000000000001,0.04440395534038544,0.0006103515625,0.007664973847568035,0.06018410995602608
0.07899999999999996,0.044392336159944534,0.0006103515625,0.007616896647959948,0.06139923259615898
0.07950000000000002,0.04438059404492378,0.0006103515625,0.007175001315772533,0.061219681054353714
0.07999999999999996,0.04436909779906273,0.00030517578125,0.006672294344753027,0.061392322182655334
0.08050000000000002,0.04435721039772034,0.0006103515625,0.006852346006780863,0.06120165064930916
0.08099999999999996,0.044345684349536896,0.0,0.006828708574175835,0.06211268901824951
0.08150000000000002,0.044334251433610916,0.00030517578125,0.0062489863485097885,0.06075500696897507
0.08199999999999996,0.04432278499007225,-0.00030517578125,0.0061935256235301495,0.0615982860326767
0.08250000000000002,0.044310618191957474,0.0006103515625,0.00607860554009676,0.06149986386299133
0.08299999999999996,0.044299107044935226,0.00030517578125,0.005518829450011253,0.0604078471660614
0.08350000000000002,0.04428746551275253,0.0,0.0060175443068146706,0.0619400292634964
0.08399999999999996,0.04427611082792282,0.00030517578125,0.005676536820828915,0.06241220608353615
0.08450000000000002,0.04426417872309685,0.0006103515625,0.00488706398755312,0.06125480309128761
0.08499999999999996,0.04425276070833206,0.00030517578125,0.005433339159935713,0.06260567158460617
0.08550000000000002,0.04424096643924713,0.0,0.005213272292166948,0.062145959585905075
0.08599999999999997,0.04422939196228981,0.0,0.0056569501757621765,0.06205708906054497
0.08650000000000002,0.044217512011528015,0.0006103515625,0.004936549812555313,0.061030346900224686
0.08699999999999997,0.04420609027147293,0.00030517578125,0.005219093058258295,0.06196830794215202
0.08750000000000002,0.04419442638754845,0.00091552734375,0.004999399185180664,0.061814211308956146
0.08799999999999997,0.044182632118463516,0.00091552734375,0.00436578830704093,0.061181727796792984
0.08850000000000002,0.044171303510665894,0.0,0.004833702463656664,0.061713337898254395
0.08899999999999997,0.04415946081280708,0.0006103515625,0.004152115900069475,0.06151366978883743
0.08950000000000002,0.044148050248622894,0.0006103515625,0.004691673908382654,0.06046044081449509
0.08999999999999997,0.04413650929927826,0.00030517578125,0.004302594810724258,0.06107467785477638
0.09050000000000002,0.0441247895359993,0.00030517578125,0.004525958560407162,0.0614631250500679
0.09099999999999997,0.0441131629049778,0.00030517578125,0.004079714417457581,0.06191425397992134
0.09150000000000003,0.04410141333937645,0.00030517578125,0.003615573514252901,0.061506953090429306
0.09199999999999997,0.044090043753385544,0.00091552734375,0.004719272255897522,0.06154719367623329
0.09250000000000003,0.044077951461076736,0.00030517578125,0.0035475713666528463,0.06110715493559837
0.09299999999999997,0.04406658560037613,0.00030517578125,0.0038562752306461334,0.06166507676243782
0.09350000000000003,0.04405491054058075,0.00091552734375,0.003875435795634985,0.06062730401754379
0.09399999999999997,0.044043105095624924,0.0006103515625,0.0035999708343297243,0.06132175773382187
0.09450000000000003,0.04403159022331238,0.0,0.003544153179973364,0.061720218509435654
0.09499999999999997,0.04401997849345207,0.00030517578125,0.00395149365067482,0.06059318408370018
0.09550000000000003,0.044008348137140274,0.0006103515625,0.0035363452043384314,0.0618155263364315
0.09599999999999997,0.04399679973721504,0.00091552734375,0.0033619683235883713,0.061551421880722046
0.09650000000000003,0.043985385447740555,0.00030517578125,0.003514657262712717,0.06074495613574982
0.09699999999999998,0.04397385194897652,0.0006103515625,0.0037033287808299065,0.06221414729952812
0.09750000000000003,0.04396207630634308,0.0006103515625,0.003271419322118163,0.06183972582221031
0.09799999999999998,0.043950580060482025,0.0,0.002684930805116892,0.06053471192717552
0.09850000000000003,0.043938785791397095,0.0006103515625,0.0029051341116428375,0.060594797134399414
0.09899999999999998,0.043927207589149475,0.0006103515625,0.002727323677390814,0.0612633116543293
0.09950000000000003,0.04391573369503021,0.0,0.0028004476334899664,0.06200949102640152
0.09999999999999998,0.04390406236052513,0.00030517578125,0.002980559365823865,0.06104237586259842
0.10050000000000003,0.043892595916986465,0.0006103515625,0.0029722689650952816,0.06233913451433182
0.10099999999999998,0.04388062283396721,0.00030517578125,0.0029801460914313793,0.060657333582639694
0.10150000000000003,0.04386892169713974,0.00091552734375,0.002827927703037858,0.06046280637383461
0.10199999999999998,0.043857503682374954,0.0006103515625,0.0030382780823856592,0.061606261879205704
0.10250000000000004,0.04384561628103256,0.0006103515625,0.0021279510110616684,0.06084972247481346
0.10299999999999998,0.04383407160639763,0.0,0.0025463784113526344,0.06141097843647003
0.10350000000000004,0.043822504580020905,0.00030517578125,0.002145777689293027,0.06075810641050339
0.10399999999999998,0.04381091147661209,0.0006103515625,0.0022919406183063984,0.060825180262327194
