Time [s],Lmtc [m],STIM [ ],fGM [N],fGL [N]
0.0,0.048014648258686066,0.00030517578125,0.16934598982334137,0.06319231539964676
0.0004999999999999449,0.048014868050813675,0.0,0.16883836686611176,0.06329815834760666
0.0010000000000000009,0.048014722764492035,0.00091552734375,0.16901054978370667,0.06343039125204086
0.0014999999999999458,0.04801516607403755,0.00030517578125,0.16948607563972473,0.06439120322465897
0.0020000000000000018,0.04801472648978233,-0.00030517578125,0.16893821954727173,0.06380564719438553
0.0024999999999999467,0.04801487550139427,0.0,0.16951318085193634,0.06351585686206818
0.0030000000000000027,0.04801458865404129,0.0006103515625,0.16944721341133118,0.0634351372718811
0.0034999999999999476,0.04801459610462189,0.00030517578125,0.16920416057109833,0.06312242150306702
0.0040000000000000036,0.048014964908361435,0.00091552734375,0.16924424469470978,0.06341000646352768
0.0044999999999999485,0.04801483824849129,0.0006103515625,0.16914601624011993,0.0634503960609436
0.0050000000000000044,0.0480148121714592,0.0006103515625,0.16886499524116516,0.0641094446182251
0.005499999999999949,0.048014767467975616,-0.00030517578125,0.16894064843654633,0.06423597782850266
0.006000000000000005,0.04801461845636368,0.00030517578125,0.16937701404094696,0.06329057365655899
0.00649999999999995,0.048015013337135315,0.0006103515625,0.1687988042831421,0.06399315595626831
0.007000000000000006,0.04801464453339577,0.00030517578125,0.16820169985294342,0.06318292766809464
0.007499999999999951,0.04801391810178757,0.0006103515625,0.16700585186481476,0.06363213807344437
0.008000000000000007,0.048012591898441315,0.00091552734375,0.16413745284080505,0.0635078176856041
0.008499999999999952,0.04800986871123314,0.0006103515625,0.1606551706790924,0.0630352646112442
0.009000000000000008,0.0480060800909996,0.0,0.15611639618873596,0.06396330147981644
0.009499999999999953,0.048000138252973557,0.00091552734375,0.15208491683006287,0.06269535422325134
0.010000000000000009,0.04799359664320946,0.00030517578125,0.14800359308719635,0.06301376968622208
0.010499999999999954,0.0479857362806797,0.00030517578125,0.14373533427715302,0.06365115940570831
0.01100000000000001,0.047976620495319366,0.0,0.13997209072113037,0.06344610452651978
0.011499999999999955,0.047967322170734406,0.0,0.13658300042152405,0.06331849098205566
0.01200000000000001,0.04795689880847931,0.0,0.13362549245357513,0.06224486604332924
0.012499999999999956,0.04794693365693092,0.00030517578125,0.13076472282409668,0.06302853673696518
0.013000000000000012,0.04793643578886986,0.0006103515625,0.12802694737911224,0.06437622010707855
0.013499999999999956,0.04792585223913193,0.0,0.12572309374809265,0.06246766448020935
0.014000000000000012,0.04791569337248802,0.0006103515625,0.12368194013834,0.06402271240949631
0.014499999999999957,0.047904618084430695,0.0006103515625,0.12160240113735199,0.06324293464422226
0.015000000000000013,0.04789428040385246,0.00030517578125,0.12011223286390305,0.06292984634637833
0.015499999999999958,0.047884032130241394,0.00091552734375,0.11875870078802109,0.06300725787878036
0.016000000000000014,0.047873605042696,0.00030517578125,0.11733324080705643,0.06286436319351196
0.01649999999999996,0.04786333814263344,0.0006103515625,0.11617232859134674,0.06327930092811584
0.017000000000000015,0.047852884978055954,0.00030517578125,0.11487606912851334,0.061921581625938416
0.01749999999999996,0.04784264415502548,0.00030517578125,0.11376383155584335,0.0626436099410057
0.018000000000000016,0.0478326752781868,0.0006103515625,0.11267907172441483,0.064281165599823
0.01849999999999996,0.04782211780548096,0.00030517578125,0.11129866540431976,0.06347570568323135
0.019000000000000017,0.04781228303909302,0.0006103515625,0.1105487123131752,0.06302309781312943
0.019499999999999962,0.04780219495296478,0.0006103515625,0.10952625423669815,0.06290804594755173
0.020000000000000018,0.047791652381420135,0.0,0.10865108668804169,0.06321094930171967
0.020499999999999963,0.04778187721967697,0.0,0.10796638578176498,0.06315390765666962
0.02100000000000002,0.04777168855071068,0.0006103515625,0.10652413964271545,0.06224223971366882
0.021499999999999964,0.04776172339916229,0.00030517578125,0.10620031505823135,0.0636058822274208
0.02200000000000002,0.04775140434503555,0.00030517578125,0.10521235316991806,0.06376157701015472
0.022499999999999964,0.047741279006004333,0.00030517578125,0.10452672839164734,0.06376727670431137
0.02300000000000002,0.04773123189806938,0.0006103515625,0.10386261343955994,0.06234407052397728
0.023499999999999965,0.047720711678266525,0.00030517578125,0.10291367024183273,0.061860229820013046
0.02400000000000002,0.047711022198200226,0.00030517578125,0.10243996977806091,0.06328805536031723
0.024499999999999966,0.04770129546523094,0.0,0.10148747265338898,0.06229026988148689
0.025000000000000022,0.0476909838616848,0.00030517578125,0.10084138065576553,0.06276139616966248
0.025499999999999967,0.04768098518252373,0.00030517578125,0.09975166618824005,0.06400459259748459
0.026000000000000023,0.047670695930719376,0.0,0.09944890439510345,0.0627840980887413
0.026499999999999968,0.047660719603300095,0.0,0.0990728959441185,0.06276421248912811
0.027000000000000024,0.04765058681368828,0.0006103515625,0.09788646548986435,0.06227058172225952
0.02749999999999997,0.04764048755168915,0.0006103515625,0.0973125621676445,0.06275651603937149
0.028000000000000025,0.04763074964284897,0.00091552734375,0.09751468151807785,0.0631960928440094
0.02849999999999997,0.04762036353349686,0.0006103515625,0.09605255722999573,0.06202206015586853
0.029000000000000026,0.04761040210723877,0.0006103515625,0.09514586627483368,0.06284943222999573
0.02949999999999997,0.04760042950510979,0.0006103515625,0.09512417763471603,0.06356143206357956
0.030000000000000027,0.04758993536233902,0.0006103515625,0.09429286420345306,0.06295992434024811
0.03049999999999997,0.04758031666278839,0.00030517578125,0.09371062368154526,0.06295374035835266
0.031000000000000028,0.04757005721330643,0.00030517578125,0.09277645498514175,0.06255537271499634
0.03149999999999997,0.0475601851940155,0.00030517578125,0.09226511418819427,0.06362311542034149
0.03200000000000003,0.04754982516169548,0.00030517578125,0.0920606404542923,0.06255750358104706
0.03249999999999997,0.04753994196653366,0.00030517578125,0.09160343557596207,0.062020543962717056
0.03300000000000003,0.0475296750664711,0.00030517578125,0.09117569774389267,0.06356269121170044
0.033499999999999974,0.0475194938480854,-0.00030517578125,0.0903291404247284,0.0632466971874237
0.03400000000000003,0.04750963672995567,0.00030517578125,0.08962712436914444,0.06306946277618408
0.034499999999999975,0.04749950021505356,0.00030517578125,0.08937698602676392,0.06260377913713455
0.03500000000000003,0.04748915135860443,0.00030517578125,0.08887267112731934,0.06272570043802261
0.035499999999999976,0.047479093074798584,0.00030517578125,0.08789325505495071,0.06333126127719879
0.03600000000000003,0.04746927693486214,0.0,0.08719321340322495,0.06259721517562866
0.03649999999999998,0.04745921492576599,0.0006103515625,0.08673782646656036,0.06303995847702026
0.03700000000000003,0.047449205070734024,0.00091552734375,0.08570479601621628,0.06314819306135178
0.03749999999999998,0.047439027577638626,0.00091552734375,0.08539948612451553,0.063115194439888
0.038000000000000034,0.04742889106273651,0.0,0.08485306799411774,0.0629977360367775
0.03849999999999998,0.047418635338544846,0.00091552734375,0.08390213549137115,0.06235119700431824
0.039000000000000035,0.04740852862596512,0.0006103515625,0.08393797278404236,0.06309664994478226
0.03949999999999998,0.047398559749126434,0.00091552734375,0.0833549052476883,0.06351879984140396
0.040000000000000036,0.04738841578364372,0.0,0.0821479856967926,0.06314636766910553
0.04049999999999998,0.04737824946641922,0.0006103515625,0.08193298429250717,0.06303209066390991
0.041000000000000036,0.04736817628145218,0.0,0.08079846203327179,0.06270728260278702
0.04149999999999998,0.04735829681158066,0.0006103515625,0.08026859909296036,0.06304018199443817
0.04200000000000004,0.0473480261862278,0.0,0.0801379457116127,0.06273418664932251
0.04249999999999998,0.04733804613351822,0.00030517578125,0.07902419567108154,0.06264850497245789
0.04300000000000004,0.04732799530029297,0.0006103515625,0.07832539826631546,0.06243573874235153
0.04349999999999998,0.04731784760951996,-0.00030517578125,0.07817165553569794,0.061615098267793655
0.04400000000000004,0.04730764776468277,0.00030517578125,0.07696549594402313,0.06311620771884918
0.044499999999999984,0.04729762673377991,0.0006103515625,0.07641313970088959,0.0628030002117157
0.04500000000000004,0.047287363559007645,0.00030517578125,0.07584530115127563,0.06246824562549591
0.045499999999999985,0.04727758839726448,0.00030517578125,0.07520310580730438,0.06262688338756561
0.04600000000000004,0.04726773500442505,0.0006103515625,0.07483699917793274,0.062429655343294144
0.046499999999999986,0.04725748673081398,0.0006103515625,0.0741109624505043,0.06262309849262238
0.04700000000000004,0.04724763333797455,0.0006103515625,0.07355908304452896,0.06213071197271347
0.04749999999999999,0.0472373440861702,0.0006103515625,0.07228463888168335,0.06261306256055832
0.04800000000000004,0.047227583825588226,0.0006103515625,0.07246001809835434,0.0633866935968399
0.04849999999999999,0.047216929495334625,0.0006103515625,0.07143210619688034,0.062470462173223495
0.049000000000000044,0.04720707982778549,0.00030517578125,0.07117020338773727,0.06291279196739197
0.04949999999999999,0.04719726741313934,0.0006103515625,0.07071766257286072,0.061697036027908325
0.050000000000000044,0.04718681797385216,0.0006103515625,0.06995377689599991,0.06184378266334534
0.05049999999999999,0.04717686027288437,0.0006103515625,0.06955523788928986,0.06274981051683426
0.051000000000000045,0.047166887670755386,-0.00030517578125,0.06929368525743484,0.06229187920689583
0.05149999999999999,0.04715627431869507,0.0006103515625,0.06930593401193619,0.06269194185733795
0.052000000000000046,0.04714656621217728,0.00091552734375,0.06796671450138092,0.062993623316288
0.05249999999999999,0.04713638871908188,0.00030517578125,0.06757795810699463,0.06141291931271553
0.05300000000000005,0.04712647199630737,0.0006103515625,0.06766349822282791,0.06290393322706223
0.05349999999999999,0.04711630195379257,0.0,0.0663081482052803,0.06256429105997086
0.05400000000000005,0.047106046229600906,0.00030517578125,0.06597959250211716,0.06214679777622223
0.05449999999999999,0.047096557915210724,0.0006103515625,0.06560537219047546,0.06246782839298248
0.05500000000000005,0.047086119651794434,0.00030517578125,0.0652676597237587,0.06235223263502121
0.055499999999999994,0.047075651586055756,0.00030517578125,0.06464839726686478,0.06160959228873253
0.05600000000000005,0.047065939754247665,0.0006103515625,0.06414959579706192,0.06193931773304939
0.056499999999999995,0.047055624425411224,0.00030517578125,0.06404057890176773,0.06243203952908516
0.05700000000000005,0.04704561084508896,0.0006103515625,0.06337889283895493,0.06138285994529724
0.057499999999999996,0.04703574627637863,-0.00030517578125,0.06267637014389038,0.06184008717536926
0.05800000000000005,0.04702594876289368,0.00030517578125,0.06274580210447311,0.062447238713502884
0.058499999999999996,0.04701557755470276,0.001220703125,0.061461225152015686,0.06225842610001564
0.05900000000000005,0.04700513184070587,0.001220703125,0.061911556869745255,0.06132132560014725
0.0595,0.04699523001909256,0.0006103515625,0.060751210898160934,0.061561569571495056
0.06000000000000005,0.04698515683412552,0.00030517578125,0.06054583191871643,0.06194382160902023
0.0605,0.046974971890449524,0.00030517578125,0.0606745183467865,0.06211315467953682
0.061000000000000054,0.04696504771709442,0.0006103515625,0.05965951457619667,0.06196454539895058
0.0615,0.046954892575740814,0.0006103515625,0.059406742453575134,0.062023017555475235
0.062000000000000055,0.04694480076432228,0.0006103515625,0.058921825140714645,0.06232307106256485
0.0625,0.046935055404901505,0.0006103515625,0.0585877001285553,0.06299769133329391
0.06299999999999994,0.04692453518509865,0.00030517578125,0.05863412469625473,0.06136616691946983
0.0635,0.046914514154195786,0.0006103515625,0.05734480544924736,0.0614166334271431
0.06399999999999995,0.046904295682907104,0.00030517578125,0.05699895694851875,0.06314878910779953
0.0645,0.04689453914761543,-0.00030517578125,0.056753531098365784,0.06288658827543259
0.06499999999999995,0.04688429459929466,0.00030517578125,0.0559564083814621,0.061907410621643066
0.0655,0.04687407985329628,0.0006103515625,0.05599953234195709,0.06171436980366707
0.06599999999999995,0.04686418175697327,0.0006103515625,0.05572773143649101,0.06278803199529648
0.0665,0.04685366153717041,-0.00030517578125,0.05520192161202431,0.06179133430123329
0.06699999999999995,0.04684409871697426,0.00030517578125,0.054810117930173874,0.06073247641324997
0.0675,0.046834126114845276,0.0006103515625,0.054046906530857086,0.06220575422048569
0.06799999999999995,0.04682382196187973,0.00091552734375,0.05422947555780411,0.062503382563591
0.0685,0.04681374132633209,0.0,0.05347290262579918,0.0615655779838562
0.06899999999999995,0.04680345952510834,0.00030517578125,0.05320190265774727,0.0613211914896965
0.0695,0.04679363965988159,0.0006103515625,0.05268043279647827,0.06252390146255493
0.06999999999999995,0.04678305238485336,0.0006103515625,0.0521521270275116,0.061657797545194626
0.07050000000000001,0.04677353426814079,0.00030517578125,0.05159394070506096,0.06190017983317375
0.07099999999999995,0.04676351696252823,0.0006103515625,0.05152781307697296,0.0627887025475502
0.07150000000000001,0.04675303399562836,0.00030517578125,0.05097024887800217,0.06229075416922569
0.07199999999999995,0.04674309864640236,0.0006103515625,0.05037478730082512,0.061975426971912384
0.07250000000000001,0.04673294350504875,0.00091552734375,0.0504021979868412,0.06102745980024338
0.07299999999999995,0.046722929924726486,0.0006103515625,0.04963592439889908,0.062229305505752563
0.07350000000000001,0.04671274870634079,0.00030517578125,0.04939573258161545,0.062332142144441605
0.07399999999999995,0.046702515333890915,0.0006103515625,0.04869846627116203,0.06228169426321983
0.07450000000000001,0.04669313505291939,0.00091552734375,0.04847090691328049,0.06286841630935669
0.07499999999999996,0.04668246954679489,0.00030517578125,0.04826193302869797,0.06268966197967529
0.07550000000000001,0.04667249321937561,0.00030517578125,0.04769764095544815,0.0625697523355484
0.07599999999999996,0.04666239768266678,0.0,0.04743557423353195,0.06229282170534134
0.07650000000000001,0.04665195569396019,0.00030517578125,0.0469626784324646,0.06171321123838425
0.07699999999999996,0.04664221033453941,0.00030517578125,0.0461529977619648,0.06243744120001793
0.07750000000000001,0.04663185775279999,0.00030517578125,0.04598107188940048,0.06126530468463898
0.07799999999999996,0.046622052788734436,0.0,0.04586976021528244,0.06228259205818176
0.07850000000000001,0.04661174491047859,0.00091552734375,0.04530944675207138,0.06291355192661285
0.07899999999999996,0.046601440757513046,0.0006103515625,0.044850368052721024,0.0617782287299633
0.07950000000000002,0.04659178480505943,0.0,0.04445722699165344,0.06219413876533508
0.07999999999999996,0.046581316739320755,0.00030517578125,0.04441865161061287,0.06145278736948967
0.08050000000000002,0.046571265906095505,0.00030517578125,0.0442097932100296,0.062087297439575195
0.08099999999999996,0.04656129330396652,0.00030517578125,0.04369668290019035,0.0621272437274456
0.08150000000000002,0.046551413834095,0.00030517578125,0.043333813548088074,0.062354348599910736
0.08199999999999996,0.04654115438461304,-0.00030517578125,0.04300861060619354,0.06182797625660896
0.08250000000000002,0.04653080925345421,0.0006103515625,0.042465612292289734,0.06248561292886734
0.08299999999999996,0.046520985662937164,0.00091552734375,0.042299117892980576,0.061752721667289734
0.08350000000000002,0.046510837972164154,0.0,0.04167976602911949,0.061778418719768524
0.08399999999999996,0.04650071635842323,0.0,0.0413765087723732,0.06211746484041214
0.08450000000000002,0.04649099335074425,0.0,0.04131285473704338,0.062475673854351044
0.08499999999999996,0.04648078605532646,0.0006103515625,0.040906354784965515,0.06188184767961502
0.08550000000000002,0.046470653265714645,0.0006103515625,0.04011622071266174,0.06218240037560463
0.08599999999999997,0.04646037146449089,0.0,0.04038567841053009,0.061197612434625626
0.08650000000000002,0.04645038768649101,-0.00030517578125,0.04028140380978584,0.06205889210104942
0.08699999999999997,0.046440694481134415,0.00091552734375,0.039495863020420074,0.06234821677207947
0.08750000000000002,0.0464303158223629,0.0006103515625,0.03923369571566582,0.06149177625775337
0.08799999999999997,0.046420518308877945,0.0006103515625,0.0391659289598465,0.061982788145542145
0.08850000000000002,0.04641023650765419,0.00030517578125,0.038479290902614594,0.0612301230430603
0.08899999999999997,0.04640001803636551,0.0006103515625,0.0383203849196434,0.06126028299331665
0.08950000000000002,0.04639024659991264,0.00030517578125,0.03846951574087143,0.0621056854724884
0.08999999999999997,0.046379610896110535,0.00030517578125,0.03757982328534126,0.0606403574347496
0.09050000000000002,0.04637009650468826,0.00030517578125,0.037422869354486465,0.061949223279953
0.09099999999999997,0.04635993018746376,0.00030517578125,0.03697460889816284,0.062076400965452194
0.09150000000000003,0.046349722892045975,0.00091552734375,0.036702997982501984,0.06095081567764282
0.09199999999999997,0.0463399775326252,0.00030517578125,0.03648005425930023,0.06198018416762352
0.09250000000000003,0.04632953554391861,0.0006103515625,0.035796429961919785,0.061483170837163925
0.09299999999999997,0.04631977155804634,0.00030517578125,0.035533614456653595,0.06284273415803909
0.09350000000000003,0.04630947858095169,-0.00030517578125,0.035301342606544495,0.061232514679431915
0.09399999999999997,0.04629933089017868,0.0006103515625,0.03504280745983124,0.0615709125995636
0.09450000000000003,0.046289607882499695,0.00030517578125,0.03503792732954025,0.06226014718413353
0.09499999999999997,0.046279095113277435,0.0006103515625,0.03478337451815605,0.06131879612803459
0.09550000000000003,0.04626910388469696,0.00030517578125,0.03441821038722992,0.062169257551431656
0.09599999999999997,0.046259090304374695,0.0,0.03379696607589722,0.06226886063814163
0.09650000000000003,0.04624888673424721,0.00030517578125,0.033450186252593994,0.06231475621461868
0.09699999999999998,0.046238973736763,0.0006103515625,0.033299025148153305,0.061874642968177795
0.09750000000000003,0.046229179948568344,0.00030517578125,0.03275458514690399,0.0620327889919281
0.09799999999999998,0.04621904343366623,0.00030517578125,0.03328809142112732,0.06274561583995819
0.09850000000000003,0.04620872810482979,0.0006103515625,0.032782264053821564,0.06273609399795532
0.09899999999999998,0.04619847610592842,0.0,0.03224289417266846,0.061909280717372894
0.09950000000000003,0.0461886003613472,0.00030517578125,0.032409872859716415,0.0625658929347992
0.09999999999999998,0.04617802053689957,0.00030517578125,0.0315796323120594,0.06232825666666031
0.10050000000000003,0.046168357133865356,0.0,0.03158179298043251,0.062283676117658615
0.10099999999999998,0.04615823179483414,0.0006103515625,0.03093099035322666,0.061697185039520264
0.10150000000000003,0.04614827781915665,0.0006103515625,0.03067571483552456,0.0633225366473198
0.10199999999999998,0.04613795876502991,0.00030517578125,0.030725127086043358,0.0625353753566742
0.10250000000000004,0.04612782225012779,0.0,0.030259588733315468,0.06171286851167679
0.10299999999999998,0.04611809551715851,0.00030517578125,0.030345957726240158,0.0622556209564209
0.10350000000000004,0.04610767960548401,-0.00030517578125,0.02992803044617176,0.061704449355602264
0.10399999999999998,0.046097613871097565,0.00030517578125,0.029093826189637184,0.06206275522708893
0.10450000000000004,0.046087995171546936,0.0,0.029401510953903198,0.06203946843743324
0.10499999999999998,0.0460776649415493,0.0006103515625,0.029250886291265488,0.062362246215343475
