Time [s],Lmtc [m],STIM [ ],fGM [N],fGL [N]
0.0,0.048014864325523376,0.0006103515625,0.16476692259311676,0.06326662003993988
0.0004999999999999449,0.048014722764492035,0.0006103515625,0.1653219610452652,0.06240186467766762
0.0010000000000000009,0.04801482334733009,0.0006103515625,0.16530263423919678,0.06325497478246689
0.0014999999999999458,0.04801461473107338,0.0006103515625,0.16534660756587982,0.06249949708580971
0.0020000000000000018,0.04801448434591293,0.0,0.16510802507400513,0.06259743124246597
0.0024999999999999467,0.04801494628190994,0.00030517578125,0.16472303867340088,0.06317531317472458
0.0030000000000000027,0.04801467806100845,0.00091552734375,0.16588282585144043,0.06264390796422958
0.0034999999999999476,0.048014771193265915,0.0006103515625,0.16507872939109802,0.0629352331161499
0.0040000000000000036,0.04801475256681442,0.0,0.16501986980438232,0.062281422317028046
0.0044999999999999485,0.048014625906944275,0.0006103515625,0.1651686728000641,0.06281775236129761
0.0050000000000000044,0.048014964908361435,0.00091552734375,0.1651047319173813,0.06292600184679031
0.005499999999999949,0.04801453649997711,0.00030517578125,0.16462939977645874,0.06117526814341545
0.006000000000000005,0.048014797270298004,0.00030517578125,0.16459231078624725,0.06338424235582352
0.00649999999999995,0.04801444709300995,0.00030517578125,0.1642322987318039,0.06321658939123154
0.007000000000000006,0.04801370948553085,0.0006103515625,0.16374264657497406,0.06271769851446152
0.007499999999999951,0.04801352694630623,0.00030517578125,0.1616639494895935,0.0627254843711853
0.008000000000000007,0.04801163449883461,0.0006103515625,0.15864861011505127,0.06242930144071579
0.008499999999999952,0.04800878092646599,0.00030517578125,0.15452110767364502,0.06324823200702667
0.009000000000000008,0.048003628849983215,0.00030517578125,0.14958377182483673,0.0621521919965744
0.009499999999999953,0.04799667373299599,0.00091552734375,0.14307071268558502,0.062044739723205566
0.010000000000000009,0.04798717796802521,0.00030517578125,0.13661262392997742,0.0638970285654068
0.010499999999999954,0.04797559976577759,0.00030517578125,0.13048750162124634,0.06261622160673141
0.01100000000000001,0.047962404787540436,0.00030517578125,0.1246967613697052,0.06247876584529877
0.011499999999999955,0.04794762656092644,0.0006103515625,0.11957167088985443,0.06322260946035385
0.01200000000000001,0.04793117940425873,0.0006103515625,0.11443307995796204,0.06252869963645935
0.012499999999999956,0.04791424050927162,0.00030517578125,0.11068984121084213,0.0626496970653534
0.013000000000000012,0.047896988689899445,0.00030517578125,0.10762279480695724,0.06198723241686821
0.013499999999999956,0.04787890240550041,0.0,0.10487496852874756,0.0633709579706192
0.014000000000000012,0.04786055162549019,0.0,0.10303686559200287,0.06273913383483887
0.014499999999999957,0.04784206673502922,0.0,0.10092823207378387,0.06149309501051903
0.015000000000000013,0.047824300825595856,0.001220703125,0.09946737438440323,0.06384223699569702
0.015499999999999958,0.04780605062842369,0.0006103515625,0.09739044308662415,0.06182803586125374
0.016000000000000014,0.04778803139925003,0.00030517578125,0.09668996185064316,0.06252691149711609
0.01649999999999996,0.04777040705084801,0.0006103515625,0.09447357058525085,0.06256232410669327
0.017000000000000015,0.04775289446115494,0.0,0.09244654327630997,0.0621415376663208
0.01749999999999996,0.04773527383804321,0.0006103515625,0.09170407801866531,0.06280465424060822
0.018000000000000016,0.047717634588479996,0.00030517578125,0.08934039622545242,0.0628301203250885
0.01849999999999996,0.04770013689994812,0.001220703125,0.0884493812918663,0.06212519109249115
0.019000000000000017,0.047683052718639374,0.00030517578125,0.08710083365440369,0.06172701343894005
0.019499999999999962,0.04766528308391571,0.00030517578125,0.08560211211442947,0.0621095709502697
0.020000000000000018,0.04764805734157562,0.00030517578125,0.08433246612548828,0.06302032619714737
0.020499999999999963,0.047630760818719864,0.00091552734375,0.08283611387014389,0.06266628205776215
0.02100000000000002,0.047613080590963364,0.0,0.08149479329586029,0.0633203312754631
0.021499999999999964,0.047595661133527756,0.0,0.08036443591117859,0.06299276649951935
0.02200000000000002,0.047578372061252594,0.0006103515625,0.07873378694057465,0.0627545639872551
0.022499999999999964,0.04756099730730057,0.0006103515625,0.0780835673213005,0.06212339922785759
0.02300000000000002,0.04754338413476944,0.0006103515625,0.076848104596138,0.06268193572759628
0.023499999999999965,0.047525711357593536,0.00030517578125,0.0757032185792923,0.0625186562538147
0.02400000000000002,0.04750876873731613,0.0006103515625,0.0745786726474762,0.06202767789363861
0.024499999999999966,0.04749075323343277,0.00030517578125,0.07412023842334747,0.06248265132308006
0.025000000000000022,0.04747360944747925,0.0006103515625,0.0726788118481636,0.06399377435445786
0.025499999999999967,0.04745611920952797,0.00030517578125,0.07156271487474442,0.06222831457853317
0.026000000000000023,0.04743877053260803,0.00030517578125,0.07091138511896133,0.06277825683355331
0.026499999999999968,0.047421205788850784,0.0006103515625,0.06976088136434555,0.062420424073934555
0.027000000000000024,0.04740338400006294,0.0006103515625,0.06878220289945602,0.062233805656433105
0.02749999999999997,0.04738634079694748,0.0006103515625,0.06755578517913818,0.06234306842088699
0.028000000000000025,0.04736880213022232,-0.00030517578125,0.06716585904359818,0.061973944306373596
0.02849999999999997,0.04735099896788597,0.0006103515625,0.06523126363754272,0.06276361644268036
0.029000000000000026,0.047334086149930954,0.00030517578125,0.06513521075248718,0.06166164204478264
0.02949999999999997,0.04731636494398117,0.001220703125,0.06374342739582062,0.062001124024391174
0.030000000000000027,0.047299303114414215,0.0006103515625,0.06294368207454681,0.06240115687251091
0.03049999999999997,0.04728158190846443,0.00030517578125,0.061911579221487045,0.06191977486014366
0.031000000000000028,0.04726414009928703,0.00091552734375,0.06072399392724037,0.06176362186670303
0.03149999999999997,0.04724716395139694,0.00091552734375,0.06066378951072693,0.062219247221946716
0.03200000000000003,0.047229014337062836,0.00030517578125,0.05971357598900795,0.061558887362480164
0.03249999999999997,0.047211792320013046,0.0006103515625,0.05920535698533058,0.06126060709357262
0.03300000000000003,0.04719453305006027,0.00030517578125,0.05824432522058487,0.06203995645046234
0.033499999999999974,0.0471770241856575,0.00030517578125,0.05726727843284607,0.06247340887784958
0.03400000000000003,0.047159772366285324,0.00030517578125,0.05703490599989891,0.06194116175174713
0.034499999999999975,0.04714220389723778,0.0006103515625,0.05638939514756203,0.06175820901989937
0.03500000000000003,0.0471249483525753,0.0006103515625,0.05572725087404251,0.0628761425614357
0.035499999999999976,0.047107212245464325,0.00030517578125,0.055017925798892975,0.061035048216581345
0.03600000000000003,0.04708975553512573,0.00030517578125,0.05482708290219307,0.06087880581617355
0.03649999999999998,0.047072600573301315,0.0,0.05365370213985443,0.061702776700258255
0.03700000000000003,0.047055162489414215,0.0006103515625,0.052846938371658325,0.0619962103664875
0.03749999999999998,0.04703769087791443,0.00030517578125,0.052605126053094864,0.062092848122119904
0.038000000000000034,0.04701997712254524,0.0006103515625,0.05213204771280289,0.06141990050673485
0.03849999999999998,0.04700282961130142,0.0006103515625,0.051965679973363876,0.06297092884778976
0.039000000000000035,0.046985235065221786,0.00030517578125,0.0507357157766819,0.061928361654281616
0.03949999999999998,0.04696778580546379,0.0006103515625,0.05094446986913681,0.06187298148870468
0.040000000000000036,0.0469505712389946,0.00091552734375,0.04978780448436737,0.06194861978292465
0.04049999999999998,0.04693291708827019,0.00030517578125,0.04947929456830025,0.06158507615327835
0.041000000000000036,0.04691550135612488,-0.00030517578125,0.04902338236570358,0.06187024712562561
0.04149999999999998,0.046898335218429565,0.00030517578125,0.04872629791498184,0.06208711862564087
0.04200000000000004,0.046880513429641724,0.00030517578125,0.047578971832990646,0.06129539757966995
0.04249999999999998,0.04686342552304268,0.0006103515625,0.04746650904417038,0.06185511499643326
0.04300000000000004,0.046845968812704086,0.00030517578125,0.04687673598527908,0.06180347874760628
0.04349999999999998,0.04682857543230057,0.00030517578125,0.04639296233654022,0.060942392796278
0.04400000000000004,0.04681127518415451,0.0,0.04601380601525307,0.06119908392429352
0.044499999999999984,0.04679381474852562,0.00030517578125,0.045107368379831314,0.061270855367183685
0.04500000000000004,0.046776387840509415,0.0006103515625,0.04498187452554703,0.06232142820954323
0.045499999999999985,0.046758729964494705,0.0006103515625,0.04373282939195633,0.061379607766866684
0.04600000000000004,0.046741556376218796,0.0,0.04385402426123619,0.061449356377124786
0.046499999999999986,0.04672401770949364,0.0006103515625,0.04331311210989952,0.06238507106900215
0.04700000000000004,0.04670635238289833,0.00030517578125,0.04220949113368988,0.060920290648937225
0.04749999999999999,0.0466892383992672,0.0,0.0420818030834198,0.06141946464776993
0.04800000000000004,0.04667181149125099,0.0006103515625,0.04122084751725197,0.06266282498836517
0.04849999999999999,0.046654146164655685,0.00091552734375,0.04087856039404869,0.0607195608317852
0.049000000000000044,0.04663675278425217,0.00030517578125,0.040292877703905106,0.06058216840028763
0.04949999999999999,0.046619147062301636,0.0006103515625,0.04022372141480446,0.06088682636618614
0.050000000000000044,0.04660174623131752,0.0006103515625,0.039798934012651443,0.0612880140542984
0.05049999999999999,0.04658404737710953,0.0,0.039135176688432693,0.061155930161476135
0.051000000000000045,0.046566568315029144,0.00030517578125,0.038826990872621536,0.06062748655676842
0.05149999999999999,0.04654964059591293,0.0006103515625,0.03828813508152962,0.06286507844924927
0.052000000000000046,0.04653213173151016,0.0006103515625,0.03751480206847191,0.06082773953676224
0.05249999999999999,0.04651498794555664,0.0006103515625,0.03739346191287041,0.06091541051864624
0.05300000000000005,0.04649748280644417,0.00030517578125,0.037274058908224106,0.060743190348148346
0.05349999999999999,0.046479880809783936,0.0006103515625,0.03644667938351631,0.061365317553281784
0.05400000000000005,0.04646243155002594,0.00030517578125,0.035895202308893204,0.06149787828326225
0.05449999999999999,0.04644492268562317,0.00030517578125,0.035971179604530334,0.0608438178896904
0.05500000000000005,0.04642771556973457,0.0006103515625,0.035256847739219666,0.06251994520425797
0.055499999999999994,0.046409983187913895,0.0006103515625,0.03430768847465515,0.06134190410375595
0.05600000000000005,0.0463930107653141,0.00030517578125,0.034871991723775864,0.061016492545604706
0.056499999999999995,0.04637589678168297,0.00030517578125,0.03395310416817665,0.06191353499889374
0.05700000000000005,0.04635792598128319,0.0006103515625,0.03376178815960884,0.0611749142408371
0.057499999999999996,0.046340856701135635,0.0006103515625,0.033218201249837875,0.06148124858736992
0.05800000000000005,0.046323440968990326,0.00091552734375,0.03312039002776146,0.06156130135059357
0.058499999999999996,0.0463058277964592,0.0006103515625,0.03287198022007942,0.06104620173573494
0.05900000000000005,0.04628846049308777,0.0006103515625,0.03187700733542442,0.061759158968925476
0.0595,0.04627102240920067,0.0006103515625,0.03249695152044296,0.060957301408052444
0.06000000000000005,0.04625355452299118,0.0006103515625,0.03163331747055054,0.06201459467411041
0.0605,0.04623626917600632,0.00030517578125,0.030961792916059494,0.06143015995621681
0.061000000000000054,0.046218808740377426,0.00030517578125,0.031216660514473915,0.06071875989437103
0.0615,0.0462016761302948,0.00030517578125,0.030621308833360672,0.06200640648603439
0.062000000000000055,0.04618360847234726,0.00030517578125,0.03020789846777916,0.06053941324353218
0.0625,0.04616652801632881,0.0006103515625,0.029690975323319435,0.061344537883996964
0.06299999999999994,0.0461488775908947,0.0006103515625,0.029622215777635574,0.06137280538678169
0.0635,0.04613151028752327,0.00030517578125,0.02923925220966339,0.061082661151885986
0.06399999999999995,0.04611430689692497,0.00091552734375,0.028707848861813545,0.06095219776034355
0.0645,0.046096689999103546,0.0006103515625,0.028706857934594154,0.06101815402507782
0.06499999999999995,0.046079542487859726,0.0006103515625,0.028008608147501945,0.06199066713452339
0.0655,0.0460621602833271,0.0006103515625,0.027596885338425636,0.06111801788210869
0.06599999999999995,0.046044811606407166,0.0006103515625,0.027927864342927933,0.06122031807899475
0.0665,0.04602741822600365,0.0006103515625,0.02716072089970112,0.06138358637690544
0.06699999999999995,0.046009570360183716,0.0006103515625,0.027118146419525146,0.06008671969175339
0.0675,0.045992523431777954,0.0006103515625,0.026939652860164642,0.06123215705156326
0.06799999999999995,0.045975007116794586,0.00030517578125,0.026797985658049583,0.060990460216999054
0.0685,0.04595715552568436,0.00030517578125,0.026550784707069397,0.06065184995532036
0.06899999999999995,0.045939888805150986,0.00091552734375,0.02592916414141655,0.06118380278348923
0.0695,0.04592270404100418,0.00091552734375,0.025443369522690773,0.0603778176009655
0.06999999999999995,0.0459052138030529,0.00030517578125,0.025292206555604935,0.061500269919633865
0.07050000000000001,0.0458875335752964,0.0,0.024642229080200195,0.060407720506191254
0.07099999999999995,0.04587021470069885,0.00030517578125,0.02450624853372574,0.059848468750715256
0.07150000000000001,0.0458531379699707,0.001220703125,0.023961789906024933,0.06195870414376259
0.07199999999999995,0.045835305005311966,0.00091552734375,0.023855658248066902,0.05971665680408478
0.07250000000000001,0.04581798240542412,0.0006103515625,0.02384398877620697,0.06163979694247246
0.07299999999999995,0.04580024629831314,0.0006103515625,0.02307204157114029,0.060876164585351944
0.07350000000000001,0.04578295350074768,0.00030517578125,0.022738751024007797,0.06131314858794212
0.07399999999999995,0.0457657054066658,0.0006103515625,0.022492699325084686,0.06100071966648102
0.07450000000000001,0.0457485057413578,0.00091552734375,0.02213272824883461,0.06093287095427513
0.07499999999999996,0.045731112360954285,0.0006103515625,0.02209722250699997,0.06185034289956093
0.07550000000000001,0.04571322724223137,0.00030517578125,0.02138807810842991,0.06003275886178017
0.07599999999999996,0.04569604992866516,0.0006103515625,0.021471640095114708,0.060873307287693024
0.07650000000000001,0.045678745955228806,0.00030517578125,0.021258702501654625,0.06109914183616638
0.07699999999999996,0.045661140233278275,0.0006103515625,0.020809350535273552,0.06099381670355797
0.07750000000000001,0.04564395546913147,0.00030517578125,0.019895371049642563,0.060632962733507156
0.07799999999999996,0.045626357197761536,0.00030517578125,0.019791796803474426,0.06080731004476547
0.07850000000000001,0.045609068125486374,0.00030517578125,0.01946655847132206,0.062222786247730255
0.07899999999999996,0.04559141397476196,0.00091552734375,0.01915210671722889,0.06055145710706711
0.07950000000000002,0.04557406157255173,0.001220703125,0.019055206328630447,0.06047394126653671
0.07999999999999996,0.045556675642728806,0.00030517578125,0.018766164779663086,0.0609256811439991
0.08050000000000002,0.04553908854722977,0.00030517578125,0.01819796673953533,0.061306633055210114
0.08099999999999996,0.04552176594734192,0.00091552734375,0.01777186058461666,0.0602010078728199
0.08150000000000002,0.04550459235906601,0.00030517578125,0.017887067049741745,0.061037663370370865
0.08199999999999996,0.04548661783337593,0.00091552734375,0.017117487266659737,0.06160663813352585
0.08250000000000002,0.04546963796019554,0.00091552734375,0.016957271844148636,0.061400990933179855
0.08299999999999996,0.04545200988650322,0.0,0.016451021656394005,0.060810636729002
0.08350000000000002,0.045434702187776566,0.0006103515625,0.016146330162882805,0.06053769588470459
0.08399999999999996,0.045417167246341705,0.0006103515625,0.015762554481625557,0.06017058342695236
0.08450000000000002,0.04539954662322998,0.0006103515625,0.015481382608413696,0.061098068952560425
0.08499999999999996,0.045382462441921234,0.0006103515625,0.015262127853929996,0.062177207320928574
0.08550000000000002,0.04536471515893936,0.00030517578125,0.014805859886109829,0.060160793364048004
0.08599999999999997,0.045347124338150024,0.00030517578125,0.01482872013002634,0.06025628745555878
0.08650000000000002,0.045330025255680084,0.0006103515625,0.01432638056576252,0.06053142994642258
0.08699999999999997,0.04531257227063179,0.00030517578125,0.013991129584610462,0.06077275425195694
0.08750000000000002,0.04529522731900215,0.00030517578125,0.013601146638393402,0.06054912135004997
0.08799999999999997,0.04527798667550087,0.00030517578125,0.013610820285975933,0.06061768904328346
0.08850000000000002,0.04526029899716377,0.0,0.013352887704968452,0.0607806034386158
0.08899999999999997,0.0452430360019207,0.00030517578125,0.012797213159501553,0.06052964925765991
0.08950000000000002,0.04522551968693733,0.00091552734375,0.013167165219783783,0.06016664206981659
0.08999999999999997,0.04520796984434128,0.00030517578125,0.012409677729010582,0.06025373935699463
0.09050000000000002,0.045190561562776566,0.00091552734375,0.01211866457015276,0.06049232557415962
0.09099999999999997,0.045173246413469315,0.0,0.01154873613268137,0.06076812744140625
0.09150000000000003,0.04515579342842102,0.00091552734375,0.01190438587218523,0.06127333641052246
0.09199999999999997,0.04513806477189064,0.00030517578125,0.011065581813454628,0.06031909957528114
0.09250000000000003,0.04512098804116249,0.0006103515625,0.01115834154188633,0.06051059067249298
0.09299999999999997,0.04510311409831047,0.001220703125,0.010677334852516651,0.06033219024538994
0.09350000000000003,0.045085787773132324,0.0,0.010322785004973412,0.06094875931739807
0.09399999999999997,0.04506848752498627,0.0,0.00989038310945034,0.0601264126598835
0.09450000000000003,0.045050859451293945,0.0006103515625,0.01003196183592081,0.06110534444451332
0.09499999999999997,0.04503355175256729,0.0006103515625,0.009541473351418972,0.06183990091085434
0.09550000000000003,0.04501558840274811,0.00030517578125,0.009076331742107868,0.060181260108947754
0.09599999999999997,0.044998422265052795,0.0,0.009414716623723507,0.06071103364229202
0.09650000000000003,0.044981203973293304,0.0006103515625,0.009338662959635258,0.061189405620098114
0.09699999999999998,0.04496362432837486,0.001220703125,0.008699394762516022,0.060477182269096375
0.09750000000000003,0.04494659602642059,0.00091552734375,0.008174298331141472,0.060836516320705414
0.09799999999999998,0.04492906481027603,0.00030517578125,0.008518376387655735,0.061281658709049225
0.09850000000000003,0.044911619275808334,0.0006103515625,0.007957304827868938,0.06062661111354828
0.09899999999999998,0.04489424452185631,-0.00030517578125,0.00793546624481678,0.060589708387851715
0.09950000000000003,0.04487684741616249,0.0006103515625,0.00790476519614458,0.060885023325681686
0.09999999999999998,0.04485934227705002,0.00091552734375,0.007353038527071476,0.0612550713121891
0.10050000000000003,0.044842030853033066,0.00030517578125,0.006980258040130138,0.060365885496139526
0.10099999999999998,0.044824834913015366,0.0006103515625,0.007251431699842215,0.06110357120633125
0.10150000000000003,0.04480760172009468,0.00030517578125,0.006996141746640205,0.06229380890727043
0.10199999999999998,0.044789429754018784,-0.00030517578125,0.006995059084147215,0.060506731271743774
0.10250000000000004,0.0447724275290966,0.001220703125,0.00666090240702033,0.061473630368709564
0.10299999999999998,0.04475508630275726,0.0006103515625,0.00632916484028101,0.06116315349936485
0.10350000000000004,0.044737495481967926,0.00091552734375,0.006582779809832573,0.0614769421517849
