Time [s],Lmtc [m],STIM [ ],fGM [N],fGL [N]
0.0,0.04801490530371666,0.00091552734375,0.17082659900188446,0.06396793574094772
0.0004999999999999449,0.04801466315984726,0.00030517578125,0.17054182291030884,0.0636654943227768
0.0010000000000000009,0.04801493138074875,0.00030517578125,0.17094747722148895,0.06418491899967194
0.0014999999999999458,0.04801502078771591,0.0,0.17115502059459686,0.06276500225067139
0.0020000000000000018,0.04801448434591293,0.0006103515625,0.17103880643844604,0.063595250248909
0.0024999999999999467,0.04801500588655472,0.0006103515625,0.1708531230688095,0.06411784887313843
0.0030000000000000027,0.04801478981971741,0.00030517578125,0.17067545652389526,0.06307315081357956
0.0034999999999999476,0.04801463708281517,0.00091552734375,0.17072303593158722,0.06342260539531708
0.0040000000000000036,0.048014815896749496,0.001220703125,0.1704544723033905,0.06419266760349274
0.0044999999999999485,0.048014722764492035,0.0006103515625,0.17062754929065704,0.06340758502483368
0.0050000000000000044,0.0480150543153286,0.00030517578125,0.17100530862808228,0.06435957551002502
0.005499999999999949,0.04801464080810547,0.0006103515625,0.17069892585277557,0.06372138112783432
0.006000000000000005,0.048014894127845764,0.0,0.17081010341644287,0.06364496052265167
0.00649999999999995,0.0480150431394577,0.0006103515625,0.17102313041687012,0.0631164014339447
0.007000000000000006,0.048014525324106216,0.00091552734375,0.17039482295513153,0.06269405782222748
0.007499999999999951,0.04801487922668457,0.00030517578125,0.17070505023002625,0.06408737599849701
0.008000000000000007,0.048014700412750244,0.00030517578125,0.1709994077682495,0.0635119304060936
0.008499999999999952,0.04801509529352188,0.0,0.1705407202243805,0.06320808827877045
0.009000000000000008,0.04801473394036293,0.0006103515625,0.1705310195684433,0.06446084380149841
0.009499999999999953,0.04801461845636368,0.0006103515625,0.17073744535446167,0.06329463422298431
0.010000000000000009,0.048014841973781586,0.00091552734375,0.16992387175559998,0.06311441212892532
0.010499999999999954,0.048013705760240555,0.00030517578125,0.1676216721534729,0.062460679560899734
0.01100000000000001,0.048012226819992065,0.00030517578125,0.16421276330947876,0.06320894509553909
0.011499999999999955,0.048008620738983154,0.00030517578125,0.1596628576517105,0.06459271907806396
0.01200000000000001,0.04800292104482651,0.0006103515625,0.1534554660320282,0.06276191025972366
0.012499999999999956,0.047995276749134064,0.00030517578125,0.14647223055362701,0.06379392743110657
0.013000000000000012,0.047984566539525986,0.00091552734375,0.1387891322374344,0.06378202885389328
0.013499999999999956,0.047971148043870926,0.00030517578125,0.131302148103714,0.06319905817508698
0.014000000000000012,0.0479554645717144,0.0006103515625,0.12349610030651093,0.06340734660625458
0.014499999999999957,0.04793687164783478,0.00030517578125,0.11665680259466171,0.06328701227903366
0.015000000000000013,0.047916561365127563,0.00030517578125,0.11017265170812607,0.06346028298139572
0.015499999999999958,0.047894496470689774,0.00030517578125,0.1048799678683281,0.06259700655937195
0.016000000000000014,0.04787106812000275,0.0006103515625,0.10068774223327637,0.0635235533118248
0.01649999999999996,0.04784661531448364,0.00030517578125,0.09702419489622116,0.06302639096975327
0.017000000000000015,0.047821227461099625,0.00030517578125,0.09412214159965515,0.06205501779913902
0.01749999999999996,0.047796133905649185,0.00030517578125,0.09249645471572876,0.06262031197547913
0.018000000000000016,0.04777033254504204,0.0,0.09029863029718399,0.062264230102300644
0.01849999999999996,0.04774484038352966,-0.00030517578125,0.08882907778024673,0.0636523962020874
0.019000000000000017,0.04771951958537102,0.00030517578125,0.0869838297367096,0.06268492341041565
0.019499999999999962,0.04769424721598625,0.0,0.08515985310077667,0.062433864921331406
0.020000000000000018,0.04766961932182312,0.0006103515625,0.08301839232444763,0.06379309296607971
0.020499999999999963,0.04764436557888985,0.0006103515625,0.08084497600793839,0.06212210655212402
0.02100000000000002,0.04761987552046776,0.00030517578125,0.07931243628263474,0.06285380572080612
0.021499999999999964,0.04759518802165985,0.00030517578125,0.07711520791053772,0.06253397464752197
0.02200000000000002,0.04757045581936836,0.001220703125,0.07484006881713867,0.06247653439640999
0.022499999999999964,0.04754587262868881,0.00030517578125,0.07313466817140579,0.06363361328840256
0.02300000000000002,0.047520920634269714,0.0006103515625,0.07135308533906937,0.06233683601021767
0.023499999999999965,0.04749630391597748,0.00030517578125,0.06919628381729126,0.06317449361085892
0.02400000000000002,0.04747168347239494,0.00030517578125,0.06711802631616592,0.062213651835918427
0.024499999999999966,0.047447267919778824,0.00091552734375,0.0656142383813858,0.06350187212228775
0.025000000000000022,0.04742224141955376,0.0006103515625,0.06431429088115692,0.06266245990991592
0.025499999999999967,0.04739740490913391,0.0006103515625,0.0622524730861187,0.062099356204271317
0.026000000000000023,0.047372639179229736,0.00030517578125,0.06095392256975174,0.06306895613670349
0.026499999999999968,0.047347843647003174,0.00030517578125,0.05989021062850952,0.06237324699759483
0.027000000000000024,0.04732311889529228,0.0006103515625,0.057556480169296265,0.06221957504749298
0.02749999999999997,0.047298748046159744,0.0,0.05628589168190956,0.06250739842653275
0.028000000000000025,0.04727410525083542,0.0,0.05542723089456558,0.06294354796409607
0.02849999999999997,0.04724935069680214,0.00030517578125,0.05376170203089714,0.06267897039651871
0.029000000000000026,0.04722435399889946,0.0006103515625,0.05245893821120262,0.06198091059923172
0.02949999999999997,0.04719986394047737,0.0006103515625,0.05154570937156677,0.06308972090482712
0.030000000000000027,0.047175269573926926,0.0006103515625,0.050393521785736084,0.06260456889867783
0.03049999999999997,0.04715019837021828,0.00030517578125,0.049070537090301514,0.062228456139564514
0.031000000000000028,0.04712577164173126,0.00030517578125,0.04825851321220398,0.06360331177711487
0.03149999999999997,0.047100864350795746,0.0006103515625,0.04743555188179016,0.06316753476858139
0.03200000000000003,0.04707581177353859,0.00030517578125,0.04659585654735565,0.06298092007637024
0.03249999999999997,0.04705147072672844,0.0,0.045685481280088425,0.06281424313783646
0.03300000000000003,0.04702672362327576,0.0,0.0449676476418972,0.06343613564968109
0.033499999999999974,0.047001924365758896,0.0006103515625,0.04413839057087898,0.06271068751811981
0.03400000000000003,0.04697709530591965,0.0006103515625,0.04341111332178116,0.06226908043026924
0.034499999999999975,0.04695241153240204,0.0006103515625,0.042901188135147095,0.06334944069385529
0.03500000000000003,0.046928249299526215,0.0006103515625,0.04192090407013893,0.06318673491477966
0.035499999999999976,0.04690299928188324,0.00030517578125,0.041309986263513565,0.06203755736351013
0.03600000000000003,0.04687820002436638,0.00030517578125,0.04136117547750473,0.06218581646680832
0.03649999999999998,0.046853747218847275,0.00030517578125,0.040207624435424805,0.06282304972410202
0.03700000000000003,0.04682907462120056,0.00030517578125,0.039328329265117645,0.06300034373998642
0.03749999999999998,0.04680440202355385,0.00030517578125,0.03901316970586777,0.06233655661344528
0.038000000000000034,0.04677966237068176,0.0006103515625,0.03821327164769173,0.06221011281013489
0.03849999999999998,0.04675495997071266,0.0,0.037309180945158005,0.0628848597407341
0.039000000000000035,0.04673021659255028,0.00030517578125,0.036706920713186264,0.06224602460861206
0.03949999999999998,0.046706024557352066,0.00030517578125,0.03597751259803772,0.06286835670471191
0.040000000000000036,0.04668113589286804,0.0,0.03517552465200424,0.06306639313697815
0.04049999999999998,0.046656008809804916,0.0,0.03479029983282089,0.06283203512430191
0.041000000000000036,0.04663168638944626,0.00030517578125,0.03409654647111893,0.06302838772535324
0.04149999999999998,0.04660668224096298,0.001220703125,0.03357968479394913,0.06194571033120155
0.04200000000000004,0.046582065522670746,0.00030517578125,0.03341440111398697,0.0631173700094223
0.04249999999999998,0.046557217836380005,0.00091552734375,0.03240060433745384,0.06179674342274666
0.04300000000000004,0.04653261974453926,0.00030517578125,0.032228514552116394,0.06224009022116661
0.04349999999999998,0.046508289873600006,0.00030517578125,0.03176812455058098,0.06377615034580231
0.04400000000000004,0.04648321121931076,0.0006103515625,0.03096185065805912,0.06192714720964432
0.044499999999999984,0.046458784490823746,0.00030517578125,0.0308902058750391,0.06268332898616791
0.04500000000000004,0.04643408581614494,0.00030517578125,0.030048931017518044,0.06230822578072548
0.045499999999999985,0.04640934243798256,0.0006103515625,0.029757123440504074,0.06269863992929459
0.04600000000000004,0.04638487845659256,0.0,0.029309801757335663,0.06249614804983139
0.046499999999999986,0.0463603250682354,0.00030517578125,0.028826076537370682,0.06069156154990196
0.04700000000000004,0.04633563756942749,0.0006103515625,0.028696458786725998,0.061593301594257355
0.04749999999999999,0.04631101340055466,0.00030517578125,0.02793212980031967,0.06274683773517609
0.04800000000000004,0.04628622531890869,0.0006103515625,0.027891825884580612,0.0618223212659359
0.04849999999999999,0.04626184329390526,0.00030517578125,0.027362121269106865,0.061435893177986145
0.049000000000000044,0.04623657092452049,0.0006103515625,0.026591019704937935,0.0614529587328434
0.04949999999999999,0.04621221497654915,0.0006103515625,0.02636539749801159,0.06174332648515701
0.050000000000000044,0.04618729650974274,0.00091552734375,0.026192858815193176,0.06120951101183891
0.05049999999999999,0.04616259038448334,0.0,0.025507312268018723,0.06159500777721405
0.051000000000000045,0.04613805189728737,0.0006103515625,0.02540249191224575,0.06184765323996544
0.05149999999999999,0.046113014221191406,0.0006103515625,0.025046829134225845,0.062390659004449844
0.052000000000000046,0.04608895629644394,0.0,0.02443496696650982,0.06216799095273018
0.05249999999999999,0.04606393724679947,0.0006103515625,0.023944813758134842,0.061727266758680344
0.05300000000000005,0.04603954032063484,0.00091552734375,0.023581163957715034,0.06209803372621536
0.05349999999999999,0.04601484164595604,0.0006103515625,0.02308320626616478,0.06120813265442848
0.05400000000000005,0.04598996788263321,0.0,0.022655362263321877,0.060729313641786575
0.05449999999999999,0.04596555605530739,0.0,0.022815698757767677,0.06261373311281204
0.05500000000000005,0.04594023525714874,0.00030517578125,0.02238282561302185,0.06104779243469238
0.055499999999999994,0.04591597616672516,0.0006103515625,0.02159424126148224,0.06126498430967331
0.05600000000000005,0.04589112102985382,0.0006103515625,0.021180327981710434,0.06195652857422829
0.056499999999999995,0.045866407454013824,0.00030517578125,0.021045073866844177,0.06186244636774063
0.05700000000000005,0.04584186151623726,0.0,0.02099098637700081,0.0621655136346817
0.057499999999999996,0.04581715166568756,0.0006103515625,0.020213399082422256,0.06160921975970268
0.05800000000000005,0.0457923598587513,0.00091552734375,0.02057732082903385,0.06166287884116173
0.058499999999999996,0.045767851173877716,0.0006103515625,0.01973053067922592,0.06170918419957161
0.05900000000000005,0.045742958784103394,0.00030517578125,0.0197573471814394,0.0601433701813221
0.0595,0.045718517154455185,-0.00030517578125,0.019417045637965202,0.06226186081767082
0.06000000000000005,0.04569367691874504,0.0006103515625,0.01904316619038582,0.06170409172773361
0.0605,0.04566885903477669,0.00091552734375,0.01860167272388935,0.06176981329917908
0.061000000000000054,0.045644596219062805,0.00091552734375,0.018683580681681633,0.06179911270737648
0.0615,0.04561948403716087,0.0006103515625,0.018327362835407257,0.06096597760915756
0.062000000000000055,0.04559488967061043,0.0006103515625,0.0177628081291914,0.06197545677423477
0.0625,0.04557044431567192,0.0,0.016998814418911934,0.06147423014044762
0.06299999999999994,0.04554580897092819,0.001220703125,0.017017878592014313,0.06200175732374191
0.0635,0.04552106559276581,0.0006103515625,0.0168427936732769,0.06171199679374695
0.06399999999999995,0.04549621045589447,0.0006103515625,0.016250919550657272,0.06181399151682854
0.0645,0.0454719103872776,0.0006103515625,0.01619444414973259,0.061820778995752335
0.06499999999999995,0.04544691741466522,-0.00030517578125,0.01605643518269062,0.06092226505279541
0.0655,0.04542220011353493,0.0,0.01559181697666645,0.06191540136933327
0.06599999999999995,0.04539749026298523,0.0006103515625,0.0153272720053792,0.061175692826509476
0.0665,0.04537276178598404,0.00030517578125,0.01548074558377266,0.062034714967012405
0.06699999999999995,0.04534795880317688,0.0006103515625,0.014798217453062534,0.062248118221759796
0.0675,0.045323219150304794,0.00030517578125,0.014620757661759853,0.06132485345005989
0.06799999999999995,0.04529840126633644,0.00030517578125,0.014744119718670845,0.061377670615911484
0.0685,0.04527398943901062,0.00030517578125,0.014635720290243626,0.06081344187259674
0.06899999999999995,0.04524924233555794,0.00030517578125,0.014072954654693604,0.06171117350459099
0.0695,0.04522482305765152,0.0,0.014152009040117264,0.06183905526995659
0.06999999999999995,0.04519987478852272,0.00030517578125,0.013789039105176926,0.06136972829699516
0.07050000000000001,0.04517479985952377,0.0,0.013566037639975548,0.06173129379749298
0.07099999999999995,0.045150600373744965,0.00030517578125,0.013449173420667648,0.061886075884103775
0.07150000000000001,0.04512551799416542,0.00030517578125,0.01293573435395956,0.06162949278950691
0.07199999999999995,0.04510112106800079,0.0006103515625,0.012760857120156288,0.06114773079752922
0.07250000000000001,0.045076046139001846,0.00030517578125,0.012377103790640831,0.06151430308818817
0.07299999999999995,0.045051392167806625,0.00030517578125,0.012431208975613117,0.06181035190820694
0.07350000000000001,0.04502691328525543,0.00091552734375,0.011993195861577988,0.06154356896877289
0.07399999999999995,0.0450018048286438,0.00091552734375,0.01195601373910904,0.06100805476307869
0.07450000000000001,0.04497718811035156,0.0006103515625,0.011685517616569996,0.06110523268580437
0.07499999999999996,0.04495275020599365,0.0006103515625,0.011486116796731949,0.06145358458161354
0.07550000000000001,0.04492805153131485,0.0,0.011068921536207199,0.061193451285362244
0.07599999999999996,0.04490350931882858,0.00030517578125,0.010782274417579174,0.06111526116728783
0.07650000000000001,0.04487909376621246,0.0006103515625,0.01091428380459547,0.06188745051622391
0.07699999999999996,0.04485439136624336,0.00091552734375,0.01005869172513485,0.06151672825217247
0.07750000000000001,0.044829558581113815,0.00030517578125,0.009923411533236504,0.06131301447749138
0.07799999999999996,0.04480549320578575,0.00030517578125,0.009593073278665543,0.06155994534492493
0.07850000000000001,0.044780582189559937,0.00030517578125,0.00930933840572834,0.06126152351498604
0.07899999999999996,0.044756002724170685,0.0006103515625,0.00897342711687088,0.06177341565489769
0.07950000000000002,0.044731445610523224,0.0006103515625,0.008198549039661884,0.06160897761583328
0.07999999999999996,0.044706523418426514,0.00091552734375,0.008228994905948639,0.061490748077631
0.08050000000000002,0.044681843370199203,0.0006103515625,0.007762590888887644,0.06188807263970375
0.08099999999999996,0.04465718939900398,0.00030517578125,0.007449996657669544,0.0611325204372406
0.08150000000000002,0.04463248327374458,0.00030517578125,0.007363061420619488,0.060827236622571945
0.08199999999999996,0.04460810124874115,0.00030517578125,0.006587988696992397,0.06157951056957245
0.08250000000000002,0.04458319768309593,0.00030517578125,0.006242580711841583,0.06055443361401558
0.08299999999999996,0.04455864056944847,0.0006103515625,0.006424829363822937,0.06120854243636131
0.08350000000000002,0.04453352838754654,0.0006103515625,0.00535802124068141,0.060795072466135025
0.08399999999999996,0.04450888931751251,0.00030517578125,0.006051677744835615,0.06143064424395561
0.08450000000000002,0.04448476433753967,0.00030517578125,0.0056341951712965965,0.06126323714852333
0.08499999999999996,0.044459812343120575,0.00030517578125,0.005149813834577799,0.06024852767586708
0.08550000000000002,0.04443507269024849,0.00030517578125,0.004713516216725111,0.061547063291072845
0.08599999999999997,0.04441021755337715,0.0,0.003876390401273966,0.06125395745038986
0.08650000000000002,0.04438592866063118,0.00091552734375,0.004054843448102474,0.059985384345054626
0.08699999999999997,0.04436095058917999,0.0006103515625,0.0032143774442374706,0.06033288687467575
0.08750000000000002,0.04433627799153328,0.0,0.0030439612455666065,0.060992833226919174
0.08799999999999997,0.04431188479065895,0.0,0.0028694707434624434,0.06104952096939087
0.08850000000000002,0.04428651183843613,0.00030517578125,0.002462192205712199,0.06049320846796036
0.08899999999999997,0.044262152165174484,0.0,0.0022327485494315624,0.06142416596412659
0.08950000000000002,0.044237229973077774,0.0006103515625,0.0018383251735940576,0.06139839068055153
0.08999999999999997,0.04421243444085121,0.0006103515625,0.001364614232443273,0.05976599082350731
0.09050000000000002,0.04418807476758957,0.0,0.0012752326438203454,0.06079574301838875
0.09099999999999997,0.044163335114717484,0.00091552734375,0.0012537386501207948,0.06071365252137184
0.09150000000000003,0.04413880035281181,0.0006103515625,0.0009487495408393443,0.062025267630815506
0.09199999999999997,0.04411410167813301,0.0006103515625,0.0007453327416442335,0.061035897582769394
0.09250000000000003,0.04408930242061615,0.00030517578125,0.0011322920909151435,0.060593172907829285
0.09299999999999997,0.04406483843922615,0.00030517578125,0.000727049307897687,0.060965992510318756
0.09350000000000003,0.04403995722532272,0.00030517578125,-1.828982749429997e-05,0.06016072630882263
0.09399999999999997,0.044015347957611084,0.0006103515625,-0.0001662956492509693,0.061218950897455215
0.09450000000000003,0.0439906120300293,0.00030517578125,-0.0005168600473552942,0.06118007004261017
0.09499999999999997,0.04396601393818855,0.00030517578125,-0.0006083292537368834,0.06116358935832977
0.09550000000000003,0.043941330164670944,0.0006103515625,-0.0008578273118473589,0.06110753118991852
0.09599999999999997,0.04391653463244438,0.0,-0.0011568584013730288,0.0610424168407917
0.09650000000000003,0.043892182409763336,0.0006103515625,-0.0007031381828710437,0.06183244287967682
0.09699999999999998,0.043867457658052444,-0.00030517578125,-0.001625077216885984,0.06105610728263855
0.09750000000000003,0.04384267330169678,0.00030517578125,-0.001745758461765945,0.06180458888411522
0.09799999999999998,0.04381808266043663,0.00091552734375,-0.0014379004715010524,0.06161930784583092
0.09850000000000003,0.04379309341311455,0.0,-0.001790999318473041,0.06117707118391991
0.09899999999999998,0.04376860335469246,0.00030517578125,-0.0017035693163052201,0.061985332518815994
0.09950000000000003,0.04374377429485321,0.0006103515625,-0.002319087740033865,0.06123657897114754
0.09999999999999998,0.04371943697333336,-0.0006103515625,-0.002355153439566493,0.06207992509007454
0.10050000000000003,0.043694667518138885,0.0,-0.0027000177651643753,0.06165045499801636
0.10099999999999998,0.04366954043507576,0.00091552734375,-0.0025211910251528025,0.062010690569877625
0.10150000000000003,0.04364515468478203,0.00030517578125,-0.0027511497028172016,0.06094018369913101
0.10199999999999998,0.04362056404352188,0.00030517578125,-0.002683948492631316,0.06087702512741089
0.10250000000000004,0.04359564930200577,-0.00030517578125,-0.0031896329019218683,0.06247410178184509
0.10299999999999998,0.043570976704359055,0.0006103515625,-0.0032847016118466854,0.06162520870566368
0.10350000000000004,0.043546173721551895,0.0,-0.0032900243531912565,0.06173432618379593
0.10399999999999998,0.043521419167518616,0.00030517578125,-0.003679144661873579,0.06242440640926361
