Time [s],Lmtc [m],STIM [ ],fGM [N],fGL [N]
0.0,0.048014797270298004,0.00030517578125,0.17629201710224152,0.06260266155004501
0.0004999999999999449,0.04801478236913681,0.0,0.1768866330385208,0.06323976069688797
0.0010000000000000009,0.04801476001739502,0.00030517578125,0.17625753581523895,0.06405676156282425
0.0014999999999999458,0.04801470786333084,0.0006103515625,0.1765783578157425,0.06321956217288971
0.0020000000000000018,0.04801487922668457,0.0,0.17661310732364655,0.06365244835615158
0.0024999999999999467,0.04801495000720024,0.0006103515625,0.17670096457004547,0.06376422941684723
0.0030000000000000027,0.04801475256681442,0.00030517578125,0.17653703689575195,0.06346894055604935
0.0034999999999999476,0.04801473394036293,0.00030517578125,0.1767086535692215,0.06278325617313385
0.0040000000000000036,0.04801497235894203,0.00091552734375,0.17635169625282288,0.06389445066452026
0.0044999999999999485,0.04801513999700546,0.00030517578125,0.1769159436225891,0.06446026265621185
0.0050000000000000044,0.04801488667726517,0.0006103515625,0.17662915587425232,0.06321556866168976
0.005499999999999949,0.04801445081830025,0.0006103515625,0.17650550603866577,0.06327738612890244
0.006000000000000005,0.04801478236913681,0.00091552734375,0.17625802755355835,0.06416857242584229
0.00649999999999995,0.04801427945494652,0.0,0.17535986006259918,0.06319597363471985
0.007000000000000006,0.04801414906978607,0.00030517578125,0.17496496438980103,0.06381892412900925
0.007499999999999951,0.048013217747211456,0.0,0.17259615659713745,0.06303124129772186
0.008000000000000007,0.048011623322963715,0.001220703125,0.16929210722446442,0.06427400559186935
0.008499999999999952,0.04800832271575928,0.00091552734375,0.16497965157032013,0.06413652002811432
0.009000000000000008,0.0480029322206974,0.0006103515625,0.15981560945510864,0.06247355416417122
0.009499999999999953,0.047995876520872116,0.00030517578125,0.15393051505088806,0.0630229040980339
0.010000000000000009,0.0479862242937088,0.00030517578125,0.14784687757492065,0.06333889812231064
0.010499999999999954,0.047974713146686554,0.00091552734375,0.14146509766578674,0.06285861879587173
0.01100000000000001,0.047961823642253876,0.0006103515625,0.1357802301645279,0.06338077783584595
0.011499999999999955,0.04794745892286301,0.00030517578125,0.13062305748462677,0.06364864110946655
0.01200000000000001,0.0479319728910923,0.0006103515625,0.12625326216220856,0.0642869845032692
0.012499999999999956,0.04791603982448578,0.00091552734375,0.12236177921295166,0.06297922879457474
0.013000000000000012,0.047899339348077774,0.00030517578125,0.11920128017663956,0.06305650621652603
0.013499999999999956,0.04788238927721977,0.00030517578125,0.11663980782032013,0.06324958056211472
0.014000000000000012,0.04786540940403938,0.0006103515625,0.11398220807313919,0.06243821606040001
0.014499999999999957,0.047848667949438095,0.0006103515625,0.112093985080719,0.06377862393856049
0.015000000000000013,0.047831661999225616,0.00091552734375,0.10990158468484879,0.06311982125043869
0.015499999999999958,0.04781467467546463,0.0,0.10802748054265976,0.06324274837970734
0.016000000000000014,0.04779807850718498,0.0006103515625,0.1067591980099678,0.06343702971935272
0.01649999999999996,0.04778161272406578,0.0,0.10482201725244522,0.062151890248060226
0.017000000000000015,0.04776505008339882,0.0006103515625,0.10288137942552567,0.0621752068400383
0.01749999999999996,0.04774875566363335,0.00030517578125,0.10144311934709549,0.06224539503455162
0.018000000000000016,0.04773230850696564,0.0006103515625,0.10022755712270737,0.06281019002199173
0.01849999999999996,0.04771619290113449,-0.00030517578125,0.09814473241567612,0.06247250363230705
0.019000000000000017,0.047700002789497375,0.00030517578125,0.0965627133846283,0.06277160346508026
0.019499999999999962,0.04768334701657295,0.0006103515625,0.09555570036172867,0.06294997781515121
0.020000000000000018,0.04766763374209404,0.0006103515625,0.09391362220048904,0.06350722163915634
0.020499999999999963,0.04765096679329872,0.0006103515625,0.09236831218004227,0.062115613371133804
0.02100000000000002,0.04763488844037056,0.00030517578125,0.09142807871103287,0.0624704547226429
0.021499999999999964,0.047618407756090164,0.00030517578125,0.09026683121919632,0.06249206140637398
0.02200000000000002,0.04760199785232544,0.00030517578125,0.08888290077447891,0.06288546323776245
0.022499999999999964,0.047586120665073395,0.0006103515625,0.08818230032920837,0.06241132691502571
0.02300000000000002,0.04756946861743927,0.0,0.08633286505937576,0.06265293061733246
0.023499999999999965,0.04755339026451111,0.0006103515625,0.08560429513454437,0.06272946298122406
0.02400000000000002,0.047537293285131454,0.00030517578125,0.08452321588993073,0.06255171447992325
0.024499999999999966,0.04752109572291374,0.00091552734375,0.08352722972631454,0.062381960451602936
0.025000000000000022,0.04750481992959976,0.00030517578125,0.08286022394895554,0.06254535913467407
0.025499999999999967,0.04748837277293205,0.00030517578125,0.08112659305334091,0.06281375139951706
0.026000000000000023,0.04747223109006882,0.0006103515625,0.08049121499061584,0.0633026510477066
0.026499999999999968,0.0474560484290123,0.00091552734375,0.07914245128631592,0.06271969527006149
0.027000000000000024,0.04743926227092743,0.00030517578125,0.07868664711713791,0.06246776878833771
0.02749999999999997,0.04742338880896568,0.00030517578125,0.07761161029338837,0.06263772398233414
0.028000000000000025,0.04740702733397484,0.0006103515625,0.07645740360021591,0.06279323250055313
0.02849999999999997,0.047390811145305634,0.00091552734375,0.07542424649000168,0.0631004348397255
0.029000000000000026,0.04737453535199165,0.00152587890625,0.07436440885066986,0.06273070722818375
0.02949999999999997,0.04735824465751648,0.001220703125,0.07369331270456314,0.06276972591876984
0.030000000000000027,0.047342393547296524,0.0006103515625,0.07245349884033203,0.06294193863868713
0.03049999999999997,0.04732571542263031,0.0006103515625,0.07182876765727997,0.06200482323765755
0.031000000000000028,0.047309622168540955,0.00091552734375,0.07082584500312805,0.0617901086807251
0.03149999999999997,0.047293566167354584,0.00091552734375,0.06964000314474106,0.062286511063575745
0.03200000000000003,0.04727693274617195,0.00030517578125,0.06895697861909866,0.062398459762334824
0.03249999999999997,0.04726127162575722,0.00030517578125,0.06845670193433762,0.06263420730829239
0.03300000000000003,0.047244466841220856,0.0006103515625,0.06716495752334595,0.06182866171002388
0.033499999999999974,0.047228846698999405,0.00091552734375,0.06661442667245865,0.06314478069543839
0.03400000000000003,0.04721219465136528,0.0006103515625,0.0658394992351532,0.06210462749004364
0.034499999999999975,0.047195982187986374,0.0006103515625,0.06503862887620926,0.06257513910531998
0.03500000000000003,0.047180064022541046,0.0006103515625,0.06427635997533798,0.06341826170682907
0.035499999999999976,0.04716331511735916,0.00030517578125,0.06391396373510361,0.06294602900743484
0.03600000000000003,0.04714765027165413,0.0006103515625,0.06343267858028412,0.06298235803842545
0.03649999999999998,0.04713086411356926,0.00030517578125,0.062438517808914185,0.06226298585534096
0.03700000000000003,0.04711468890309334,0.0,0.06186984106898308,0.06277372688055038
0.03749999999999998,0.04709857329726219,0.00091552734375,0.06103414297103882,0.06228253245353699
0.038000000000000034,0.04708211496472359,0.00030517578125,0.06072276458144188,0.06206550821661949
0.03849999999999998,0.04706617072224617,0.00030517578125,0.059702225029468536,0.06290782243013382
0.039000000000000035,0.047049976885318756,0.0006103515625,0.05936695635318756,0.06310287863016129
0.03949999999999998,0.04703364148736,0.0006103515625,0.05866080895066261,0.06253372132778168
0.040000000000000036,0.04701737314462662,0.0006103515625,0.05829913169145584,0.0622042641043663
0.04049999999999998,0.04700084775686264,0.0006103515625,0.05799591541290283,0.06217484548687935
0.041000000000000036,0.046984896063804626,0.00030517578125,0.05679401755332947,0.06250747293233871
0.04149999999999998,0.04696853831410408,0.00030517578125,0.056687887758016586,0.06222602352499962
0.04200000000000004,0.046952348202466965,0.0006103515625,0.055935196578502655,0.06212601438164711
0.04249999999999998,0.04693647101521492,0.0006103515625,0.05596470087766647,0.06313755363225937
0.04300000000000004,0.046919845044612885,0.00091552734375,0.05460599437355995,0.06260164827108383
0.04349999999999998,0.046903982758522034,-0.00030517578125,0.05447870492935181,0.06273017078638077
0.04400000000000004,0.04688776656985283,0.0,0.05395686626434326,0.06205485388636589
0.044499999999999984,0.04687124118208885,0.001220703125,0.053185418248176575,0.061487000435590744
0.04500000000000004,0.04685518145561218,0.00030517578125,0.05258699879050255,0.062342893332242966
0.045499999999999985,0.04683870077133179,-0.00030517578125,0.05169083550572395,0.06215474754571915
0.04600000000000004,0.04682263359427452,0.0006103515625,0.05135462433099747,0.06242328882217407
0.046499999999999986,0.046806298196315765,0.00030517578125,0.05053572729229927,0.06259945780038834
0.04700000000000004,0.04678989201784134,0.0006103515625,0.049915287643671036,0.06144006550312042
0.04749999999999999,0.04677410051226616,0.0,0.04983629658818245,0.06265287101268768
0.04800000000000004,0.046757590025663376,0.00091552734375,0.04875817149877548,0.06168941780924797
0.04849999999999999,0.04674149304628372,0.0,0.04819600284099579,0.062185849994421005
0.049000000000000044,0.04672523960471153,0.0006103515625,0.04788260534405708,0.06217152252793312
0.04949999999999999,0.046708844602108,0.0006103515625,0.04718247056007385,0.06188443675637245
0.050000000000000044,0.046692635864019394,0.0006103515625,0.04676183685660362,0.06226171925663948
0.05049999999999999,0.04667592793703079,0.00030517578125,0.04594596102833748,0.0614628903567791
0.051000000000000045,0.046659938991069794,0.0006103515625,0.045539818704128265,0.06175932660698891
0.05149999999999999,0.04664384573698044,0.00091552734375,0.04526836425065994,0.06206781789660454
0.052000000000000046,0.04662742093205452,0.00091552734375,0.044155459851026535,0.060703031718730927
0.05249999999999999,0.04661132022738457,0.0006103515625,0.04392090067267418,0.06119130924344063
0.05300000000000005,0.04659469798207283,0.0006103515625,0.043277621269226074,0.0609259270131588
0.05349999999999999,0.04657847434282303,0.0006103515625,0.043123938143253326,0.062356118112802505
0.05400000000000005,0.04656203091144562,0.0,0.04243652895092964,0.06044952943921089
0.05449999999999999,0.04654592275619507,0.0006103515625,0.0420847088098526,0.06131911650300026
0.05500000000000005,0.04653027281165123,0.00030517578125,0.04148757457733154,0.06268185377120972
0.055499999999999994,0.046513766050338745,0.00091552734375,0.0406155027449131,0.06084827706217766
0.05600000000000005,0.046497784554958344,0.0006103515625,0.04064428061246872,0.06154991686344147
0.056499999999999995,0.04648134112358093,0.00030517578125,0.039893075823783875,0.06164773553609848
0.05700000000000005,0.04646510258316994,0.0,0.03977425396442413,0.061230190098285675
0.057499999999999996,0.04644925519824028,0.00091552734375,0.03926333412528038,0.062117062509059906
0.05800000000000005,0.046432673931121826,0.00091552734375,0.038761258125305176,0.05979175865650177
0.058499999999999996,0.04641653224825859,0.00030517578125,0.03804977983236313,0.06148042529821396
0.05900000000000005,0.04640021175146103,0.0,0.038031600415706635,0.06141665205359459
0.0595,0.04638398438692093,0.00030517578125,0.0375528447329998,0.06121112406253815
0.06000000000000005,0.046368129551410675,0.0006103515625,0.03731490299105644,0.060708578675985336
0.0605,0.046351511031389236,0.00030517578125,0.036476753652095795,0.060839734971523285
0.061000000000000054,0.04633551090955734,0.00030517578125,0.03634605184197426,0.0614965595304966
0.0615,0.046319201588630676,0.0006103515625,0.036267995834350586,0.06094370409846306
0.062000000000000055,0.04630321264266968,0.0,0.035141460597515106,0.06107916682958603
0.0625,0.04628710076212883,0.00030517578125,0.03541773930191994,0.06205623224377632
0.06299999999999994,0.046270277351140976,0.0006103515625,0.034500833600759506,0.0610518604516983
0.0635,0.04625435918569565,0.0006103515625,0.034316543489694595,0.06115398928523064
0.06399999999999995,0.046237971633672714,0.0,0.03369250148534775,0.06143210083246231
0.0645,0.04622187092900276,0.00030517578125,0.03382711112499237,0.06162456423044205
0.06499999999999995,0.04620573669672012,0.0006103515625,0.0334700383245945,0.06118850037455559
0.0655,0.0461893156170845,0.0006103515625,0.03298598900437355,0.0619111992418766
0.06599999999999995,0.046173207461833954,0.00030517578125,0.032752081751823425,0.06204510107636452
0.0665,0.04615681618452072,0.0,0.03203226625919342,0.06086571887135506
0.06699999999999995,0.04614042863249779,0.00030517578125,0.03218292444944382,0.06102624535560608
0.0675,0.046124167740345,0.00030517578125,0.03153814747929573,0.06170613318681717
0.06799999999999995,0.04610815271735191,0.0006103515625,0.031212816014885902,0.062159717082977295
0.0685,0.04609152302145958,-0.0006103515625,0.03076883777976036,0.06102875992655754
0.06899999999999995,0.046075716614723206,0.00030517578125,0.030436193570494652,0.060138460248708725
0.0695,0.04605941101908684,0.00030517578125,0.030292779207229614,0.062289293855428696
0.06999999999999995,0.04604340344667435,0.00030517578125,0.029614735394716263,0.06175490468740463
0.07050000000000001,0.04602678492665291,0.00030517578125,0.029283352196216583,0.06100604683160782
0.07099999999999995,0.046010904014110565,0.0,0.029132280498743057,0.06144287809729576
0.07150000000000001,0.04599463567137718,0.00091552734375,0.02909289486706257,0.06116583198308945
0.07199999999999995,0.045977815985679626,0.00030517578125,0.02874569594860077,0.06112147495150566
0.07250000000000001,0.045962147414684296,0.0006103515625,0.028650356456637383,0.0609104223549366
0.07299999999999995,0.04594561457633972,0.0006103515625,0.028460366651415825,0.06098414584994316
0.07350000000000001,0.04592938348650932,0.0006103515625,0.027875445783138275,0.06158479303121567
0.07399999999999995,0.04591325670480728,0.0,0.027290254831314087,0.0610482357442379
0.07450000000000001,0.045897021889686584,0.0006103515625,0.02710754983127117,0.06164325773715973
0.07499999999999996,0.04588085040450096,0.00030517578125,0.026979316025972366,0.06226947531104088
0.07550000000000001,0.045864131301641464,0.0006103515625,0.026235243305563927,0.06058346480131149
0.07599999999999996,0.04584813117980957,0.0006103515625,0.02684813179075718,0.061543822288513184
0.07650000000000001,0.04583192244172096,0.00091552734375,0.025782179087400436,0.06165250763297081
0.07699999999999996,0.04581534489989281,0.0,0.025504903867840767,0.0616946704685688
0.07750000000000001,0.04579952731728554,0.001220703125,0.02500608190894127,0.06084129586815834
0.07799999999999996,0.04578311741352081,0.00030517578125,0.024807238951325417,0.06111183017492294
0.07850000000000001,0.04576696828007698,0.00030517578125,0.02428364008665085,0.06118816137313843
0.07899999999999996,0.045750562101602554,0.00091552734375,0.024136902764439583,0.061279360204935074
0.07950000000000002,0.04573450982570648,0.00030517578125,0.024452872574329376,0.062187086790800095
0.07999999999999996,0.04571825638413429,0.00091552734375,0.023534206673502922,0.061038896441459656
0.08050000000000002,0.04570174962282181,0.00030517578125,0.023520460352301598,0.06101033091545105
0.08099999999999996,0.04568564519286156,0.00030517578125,0.02323606237769127,0.060441695153713226
0.08150000000000002,0.04566969349980354,0.00030517578125,0.02299368754029274,0.060790423303842545
0.08199999999999996,0.04565351456403732,0.0006103515625,0.022523360326886177,0.06157013401389122
0.08250000000000002,0.04563749209046364,0.0006103515625,0.02172176167368889,0.060986559838056564
0.08299999999999996,0.0456208735704422,0.0006103515625,0.021528664976358414,0.06157558411359787
0.08350000000000002,0.045605000108480453,0.00030517578125,0.021492674946784973,0.06133496016263962
0.08399999999999996,0.045588418841362,0.0,0.020773254334926605,0.06147284433245659
0.08450000000000002,0.04557206854224205,0.0006103515625,0.02077058143913746,0.06110556796193123
0.08499999999999996,0.04555622488260269,0.00030517578125,0.02025279775261879,0.059273749589920044
0.08550000000000002,0.045539405196905136,0.00030517578125,0.020019641146063805,0.061286501586437225
0.08599999999999997,0.045523811131715775,0.00030517578125,0.019619645550847054,0.061880603432655334
0.08650000000000002,0.045507337898015976,0.00030517578125,0.01940280571579933,0.06139272451400757
0.08699999999999997,0.045490894466638565,0.00030517578125,0.019195593893527985,0.061090629547834396
0.08750000000000002,0.04547501727938652,0.00091552734375,0.018898801878094673,0.061549779027700424
0.08799999999999997,0.0454585887491703,0.00030517578125,0.01886780373752117,0.0609416738152504
0.08850000000000002,0.04544256255030632,0.0,0.01789793372154236,0.06267696619033813
0.08899999999999997,0.04542611166834831,0.0006103515625,0.017842160537838936,0.0611126646399498
0.08950000000000002,0.04540961608290672,0.0,0.017656993120908737,0.061333201825618744
0.08999999999999997,0.04539325088262558,0.00030517578125,0.01697872392833233,0.060767125338315964
0.09050000000000002,0.0453769825398922,0.00030517578125,0.017084840685129166,0.06091487407684326
0.09099999999999997,0.04536103829741478,0.0006103515625,0.01705094799399376,0.061587609350681305
0.09150000000000003,0.04534466564655304,0.00030517578125,0.016599778085947037,0.0604928582906723
0.09199999999999997,0.04532843828201294,0.0,0.016219530254602432,0.06116442754864693
0.09250000000000003,0.04531247168779373,0.0006103515625,0.01583692617714405,0.06180621311068535
0.09299999999999997,0.04529595002532005,0.00030517578125,0.015897639095783234,0.06084486097097397
0.09350000000000003,0.045280084013938904,0.0006103515625,0.0156608447432518,0.06115306168794632
0.09399999999999997,0.04526364430785179,0.0,0.014797915704548359,0.060913946479558945
0.09450000000000003,0.04524770379066467,0.00030517578125,0.01545743364840746,0.06144721060991287
0.09499999999999997,0.04523111507296562,0.0006103515625,0.01461467519402504,0.06191384419798851
0.09550000000000003,0.045214902609586716,0.0006103515625,0.014262638054788113,0.0613945797085762
0.09599999999999997,0.04519864544272423,0.00091552734375,0.014324751682579517,0.061216194182634354
0.09650000000000003,0.04518213868141174,0.00030517578125,0.01388364564627409,0.06043050065636635
0.09699999999999998,0.04516618698835373,-0.00030517578125,0.013669043779373169,0.06078720465302467
0.09750000000000003,0.0451497882604599,0.0,0.013408806174993515,0.06124337762594223
0.09799999999999998,0.04513348639011383,0.0006103515625,0.013422305695712566,0.06143411993980408
0.09850000000000003,0.04511741176247597,0.00030517578125,0.012789450585842133,0.06113786622881889
0.09899999999999998,0.045100752264261246,0.001220703125,0.012637018226087093,0.06074539199471474
0.09950000000000003,0.045084599405527115,0.00030517578125,0.01272262167185545,0.061749670654535294
0.09999999999999998,0.045068226754665375,0.0,0.012157533317804337,0.060743991285562515
0.10050000000000003,0.04505167156457901,0.00091552734375,0.01196171622723341,0.060601137578487396
0.10099999999999998,0.04503603279590607,0.0,0.01153176836669445,0.06147396191954613
0.10150000000000003,0.045019619166851044,0.0006103515625,0.011367561295628548,0.060956742614507675
0.10199999999999998,0.04500329867005348,0.0006103515625,0.011488210409879684,0.06098403036594391
0.10250000000000004,0.044987279921770096,0.00030517578125,0.011285113170742989,0.06152934953570366
0.10299999999999998,0.044970959424972534,0.0006103515625,0.01065066922456026,0.06196112558245659
0.10350000000000004,0.04495486617088318,0.0006103515625,0.010426162742078304,0.06178915128111839
0.10399999999999998,0.044938456267118454,0.00091552734375,0.01066610123962164,0.059955060482025146
