time [s],Lmtc [m],STIM [ ],Fsee [N]
0.0,0.0415408909320831,0.00091552734375,0.1476187503322826
0.0004999999999999,0.041540689766407,0.00091552734375,0.1474625226025326
0.001,0.0415408462285995,0.0006103515625,0.1475885619160457
0.0014999999999999,0.0415408052504062,0.00030517578125,0.1475576553465224
0.002,0.0415407717227935,0.0,0.1475334517383099
0.0024999999999999,0.0415406636893749,0.0,0.14745187305316454
0.003,0.0415409617125988,0.0,0.14768829780942513
0.0034999999999999,0.0415407493710517,0.0006103515625,0.14752147421672118
0.004,0.0415408723056316,0.00030517578125,0.14761973388178282
0.0044999999999999,0.0415407866239547,0.0006103515625,0.14755304573550626
0.005,0.0415408946573734,0.0,0.14763885972000365
0.0054999999999999,0.0415405444800853,0.0006103515625,0.1473664107216024
0.006,0.0415406376123428,0.00030517578125,0.1474461456081096
0.0064999999999999,0.041540503501892,-0.00030517578125,0.14734719490649278
0.007,0.0415404736995697,0.00030517578125,0.14733211284172765
0.0074999999999999,0.0415409617125988,0.00030517578125,0.14771959845450144
0.008,0.041540689766407,0.0,0.14750582223513414
0.0084999999999999,0.04154072701931,-0.00030517578125,0.14753780177544817
0.009,0.0415408723056316,0.0006103515625,0.1476529071159657
0.0094999999999999,0.0415408201515674,0.0006103515625,0.14761155640313894
0.01,0.0415407828986644,-0.00030517578125,0.1475826987510178
0.0104999999999999,0.041540827602148,0.0,0.14761831607649903
0.011,0.0415407940745353,0.00091552734375,0.14759212753779344
0.0114999999999999,0.0415404625236988,0.0,0.14733641995143584
0.012,0.0415391102433204,0.0006103515625,0.14629858867140957
0.0124999999999999,0.0415372401475906,0.00030517578125,0.1448990805901499
0.013,0.0415336675941944,0.0006103515625,0.14224955054871166
0.0134999999999999,0.0415285751223564,0.00030517578125,0.13856701991998174
0.014,0.0415215604007244,0.00030517578125,0.13363386982637981
0.0144999999999999,0.0415131412446498,0.0006103515625,0.12795304449244752
0.015,0.0415030494332313,0.00030517578125,0.12143739310773852
0.0154999999999999,0.0414923056960105,0.00091552734375,0.11492261500888165
0.016,0.0414806976914405,0.001220703125,0.10832024222989449
0.0164999999999999,0.0414683036506176,0.00091552734375,0.10175695997369455
0.017,0.0414558611810207,0.0006103515625,0.09575184175284011
0.0174999999999999,0.0414433367550373,0.00091552734375,0.09027357242604936
0.018,0.0414306819438934,0.00030517578125,0.08527941872066709
0.0184999999999999,0.0414180234074592,0.00091552734375,0.08082476456108215
0.019,0.0414051935076713,0.0006103515625,0.07678267606513932
0.0194999999999999,0.0413924381136894,0.0006103515625,0.0732576580533408
0.02,0.0413796678185462,0.0,0.07014790198485404
0.0204999999999999,0.0413676686584949,0.00030517578125,0.067794559952583
0.021,0.0413552783429622,0.00030517578125,0.06550492857739543
0.0214999999999999,0.0413431599736213,0.0,0.06359561662708389
0.022,0.0413306690752506,0.00091552734375,0.061695524233375196
0.0224999999999999,0.0413183122873306,0.0006103515625,0.060041769181216814
0.023,0.0413061343133449,0.0006103515625,0.05861000826299073
0.0234999999999999,0.0412939265370368,0.00030517578125,0.05726428585237907
0.024,0.0412814393639564,0.00030517578125,0.055876323476600605
0.0244999999999999,0.0412692911922931,0.00030517578125,0.054727365227045514
0.025,0.0412570126354694,0.0006103515625,0.053567097083819626
0.0254999999999999,0.0412445627152919,0.001220703125,0.052379964797919794
0.026,0.0412325747311115,0.0006103515625,0.05144345715608529
0.0264999999999999,0.0412203036248683,0.0006103515625,0.05039582807576841
0.027,0.0412077158689498,0.0006103515625,0.049243747579288344
0.0274999999999999,0.0411955006420612,0.0006103515625,0.048293164466054576
0.028,0.0411834008991718,0.0,0.04740265431031424
0.0284999999999999,0.0411712490022182,0.0006103515625,0.04649427605037966
0.029,0.0411590076982975,0.0,0.045557371800757196
0.0294999999999999,0.0411467291414737,0.00030517578125,0.044619758553001924
0.03,0.0411343351006507,0.00030517578125,0.04365124812368668
0.0304999999999999,0.041122231632471,0.0006103515625,0.04281743225095225
0.031,0.0411101952195167,0.001220703125,0.04200949937652164
0.0314999999999999,0.0410978123545646,0.0006103515625,0.04106494573748632
0.032,0.0410857424139976,0.0006103515625,0.0402610301528688
0.0324999999999999,0.0410734862089157,0.00030517578125,0.03938547400098244
0.033,0.0410613641142845,0.0,0.038572217762358495
0.0334999999999999,0.0410490185022354,0.00030517578125,0.03767918586956979
0.034,0.0410368777811527,0.0006103515625,0.03687857722942781
0.0344999999999999,0.0410246551036834,0.00030517578125,0.036051747391897315
0.035,0.0410124473273754,0.001220703125,0.03523925880167842
0.0354999999999999,0.0410001240670681,0.00091552734375,0.03439342693662711
0.036,0.0409880578517913,0.00030517578125,0.03365234231684335
0.0364999999999999,0.04097580909729,0.0006103515625,0.03284706380919344
0.037,0.0409636944532394,0.00091552734375,0.032098440163468085
0.0374999999999999,0.0409509465098381,0.0006103515625,0.031137230383503453
0.038,0.040939126163721,0.0006103515625,0.030523764603542614
0.0384999999999999,0.0409271009266376,0.00030517578125,0.029827833339846774
0.039,0.0409148000180721,0.00091552734375,0.029040238799319718
0.0394999999999999,0.0409027598798275,0.00030517578125,0.028350938062725334
0.04,0.0408905558288097,0.00091552734375,0.02760958367417464
0.0404999999999999,0.0408780649304389,0.00030517578125,0.026786639478719818
0.041,0.0408659614622592,0.00030517578125,0.026106717008129453
0.0414999999999999,0.0408537983894348,0.0,0.025410893657809363
0.042,0.0408417023718357,0.0006103515625,0.024741649963014607
0.0424999999999999,0.0408289767801761,-0.00030517578125,0.023886849109225512
0.043,0.0408169813454151,0.0,0.023278459069160446
0.0434999999999999,0.0408047549426555,0.0,0.022600017768938788
0.044,0.0407925583422184,0.0,0.02193828562770549
0.0444999999999999,0.0407801903784275,0.00030517578125,0.021234655694650897
0.045,0.0407682880759239,0.0006103515625,0.020675055974218107
0.0454999999999999,0.0407558679580688,0.00030517578125,0.01996882108913487
0.046,0.0407435782253742,0.00030517578125,0.01931413553298822
0.0464999999999999,0.0407314524054527,0.0006103515625,0.018713733574627685
0.047,0.0407190285623073,0.0006103515625,0.01803952312989065
0.0474999999999999,0.040707167237997,0.0006103515625,0.017525748194565552
0.048,0.0406949035823345,0.0006103515625,0.01690549632340375
0.0484999999999999,0.0406826063990592,0.00091552734375,0.016287349741415273
0.049,0.0406704470515251,0.0006103515625,0.015714350375379285
0.0494999999999999,0.0406580753624439,0.00030517578125,0.015096712305350434
0.05,0.0406460464000701,0.0,0.01457363799649518
0.0504999999999999,0.0406336300075054,0.00091552734375,0.0139635464877038
0.051,0.0406211242079734,0.00091552734375,0.01334757641951387
0.0514999999999999,0.04060909897089,0.0006103515625,0.012854709413040762
0.052,0.0405971333384513,0.00030517578125,0.012377650857382348
0.0524999999999999,0.0405845753848552,0.00091552734375,0.011775702543589641
0.053,0.0405720844864845,0.00091552734375,0.01120564508434761
0.0534999999999999,0.0405600778758525,0.00030517578125,0.01074964829470813
0.054,0.0405478179454803,0.0006103515625,0.010245809125763086
0.0544999999999999,0.0405358634889125,0.00030517578125,0.009811507235110827
0.055,0.0405235029757022,0.00091552734375,0.009302228436885485
0.0554999999999999,0.0405112355947494,0.00091552734375,0.008822890294003068
0.056,0.0404989384114742,0.0006103515625,0.008348414513298725
0.0564999999999999,0.0404867902398109,0.00091552734375,0.007911217944376549
0.057,0.0404744334518909,0.0,0.007446015532583448
0.0574999999999999,0.0404621884226799,0.00030517578125,0.007011867153708685
0.058,0.0404496677219867,0.0006103515625,0.006543196204265469
0.0584999999999999,0.0404374748468399,0.00030517578125,0.006141221767525994
0.059,0.0404249615967273,0.00030517578125,0.005699837200119921
0.0595,0.0404131188988685,0.0006103515625,0.0053714313214521464
0.06,0.0404008440673351,0.0006103515625,0.004985273125938124
0.0605,0.0403886325657367,0.00091552734375,0.004619209162374832
0.061,0.0403763353824615,0.00030517578125,0.0042524946507787025
0.0615,0.0403642021119594,0.00091552734375,0.003918611318863061
0.062,0.0403519421815872,0.0006103515625,0.003579357666035206
0.0625,0.0403399914503097,0.00030517578125,0.0032879985851217842
0.0629999999999999,0.0403272658586502,0.00030517578125,0.0029196750206165337
0.0635,0.0403156802058219,0.00030517578125,0.00268971974084869
0.0639999999999999,0.040303248912096,0.0006103515625,0.002379808995410283
0.0645,0.0402910150587558,0.0006103515625,0.002104673576679559
0.0649999999999999,0.0402787886559963,0.00091552734375,0.0018440465670627427
0.0655,0.0402668230235576,0.0006103515625,0.0016188290789836536
0.0659999999999999,0.040254209190607,0.00030517578125,0.0013560434047546219
0.0665,0.0402422472834587,0.00030517578125,0.0011589034302147807
0.0669999999999999,0.0402300991117954,0.00030517578125,0.0009623725678978308
0.0675,0.0402179732918739,0.00091552734375,0.0007827079223709495
0.0679999999999999,0.0402056463062763,0.00030517578125,0.0006089512707989456
0.0685,0.0401932224631309,-0.00030517578125,0.0004506432015451616
0.0689999999999999,0.0401813834905624,0.00030517578125,0.0003357533768296395
0.0695,0.0401689112186431,0.00030517578125,0.00021641433534742738
0.0699999999999999,0.0401567742228508,0.00030517578125,0.00012954447797979666
0.0705,0.040144607424736,0.0006103515625,6.330555361039199e-05
0.0709999999999999,0.0401323176920414,0.0006103515625,1.880358028554476e-05
0.0715,0.0401202291250228,0.0006103515625,7.20811218957662e-07
0.0719999999999999,0.0401079468429088,0.00091552734375,0.0
0.0725,0.0400955379009246,0.001220703125,0.0
0.0729999999999999,0.0400833673775196,0.0006103515625,0.0
0.0735,0.0400711223483085,0.00030517578125,0.0
0.0739999999999999,0.0400588288903236,0.00030517578125,0.0
0.0745,0.0400467552244663,0.00030517578125,0.0
0.0749999999999999,0.0400344841182231,0.0006103515625,0.0
0.0755,0.0400226227939128,0.0006103515625,0.0
0.0759999999999999,0.0400098077952861,0.0006103515625,0.0
0.0765,0.039997860789299,0.0,0.0
0.0769999999999999,0.0399858579039573,0.0006103515625,0.0
0.0775,0.0399736426770687,0.00030517578125,0.0
0.0779999999999999,0.0399612337350845,0.00030517578125,0.0
0.0785,0.0399489514529705,0.0006103515625,0.0
0.0789999999999999,0.039936888962984,0.00030517578125,0.0
0.0795,0.0399247333407402,0.0006103515625,0.0
0.0799999999999999,0.0399126186966896,0.0006103515625,0.0
0.0805,0.0399005226790905,0.0006103515625,0.0
0.0809999999999999,0.0398881360888481,0.0006103515625,0.0
0.0815,0.0398757718503475,0.0006103515625,0.0
0.0819999999999999,0.0398636162281036,0.00030517578125,0.0
0.0825,0.0398514159023761,0.0006103515625,0.0
0.0829999999999999,0.0398391149938106,0.0006103515625,0.0
0.0835,0.0398270115256309,0.0006103515625,0.0
0.0839999999999999,0.0398147366940975,0.0006103515625,0.0
0.0845,0.0398025959730148,0.0006103515625,0.0
0.0849999999999999,0.0397904217243194,0.00030517578125,0.0
0.0855,0.0397779904305934,0.0006103515625,0.0
0.0859999999999999,0.039766076952219,0.0006103515625,0.0
0.0865,0.0397533774375915,0.0006103515625,0.0
0.0869999999999999,0.0397413820028305,0.00030517578125,0.0
0.0875,0.0397289842367172,0.0006103515625,0.0
0.0879999999999999,0.0397166721522808,0.0006103515625,0.0
0.0885,0.0397046841681003,0.00030517578125,0.0
0.0889999999999999,0.0396926924586296,0.0006103515625,0.0
0.0895,0.0396799966692924,0.001220703125,0.0
0.0899999999999999,0.0396678894758224,0.00030517578125,0.0
0.0905,0.0396554432809352,0.00030517578125,0.0
0.0909999999999999,0.0396432913839817,0.0,0.0
0.0915,0.0396311692893505,0.0006103515625,0.0
0.0919999999999999,0.0396189056336879,0.0,0.0
0.0925,0.0396068915724754,0.00091552734375,0.0
0.0929999999999999,0.0395946204662323,0.0006103515625,0.0
0.0935,0.0395822487771511,0.0006103515625,0.0
0.0939999999999999,0.039570178836584,0.00030517578125,0.0
0.0945,0.0395578928291797,0.0,0.0
0.0949999999999999,0.0395456440746784,0.0,0.0
0.0955,0.0395334623754024,0.0,0.0
0.0959999999999999,0.039521437138319,0.0006103515625,0.0
0.0965,0.0395089201629161,0.00091552734375,0.0
0.0969999999999999,0.0394968912005424,0.00030517578125,0.0
0.0975,0.0394847132265567,0.0006103515625,0.0
0.0979999999999999,0.0394725613296031,0.00030517578125,0.0
0.0985,0.0394604764878749,-0.00030517578125,0.0
0.0989999999999999,0.0394481159746646,0.00091552734375,0.0
0.0995,0.0394359230995178,0.0006103515625,0.0
0.0999999999999999,0.0394237004220485,0.00030517578125,0.0
0.1005,0.039411287754774,0.0006103515625,0.0
0.1009999999999999,0.0393993109464645,0.00091552734375,0.0
0.1015,0.0393870398402214,0.00030517578125,0.0
0.1019999999999999,0.0393747612833976,0.00030517578125,0.0
0.1025,0.0393626280128955,0.00030517578125,0.0
0.1029999999999999,0.0393504872918129,-0.00030517578125,0.0
0.1035,0.0393379367887973,0.0006103515625,0.0
0.1039999999999999,0.0393257513642311,0.0,0.0
0.1045,0.0393134579062461,0.00091552734375,0.0
0.1049999999999999,0.0393015146255493,0.00030517578125,0.0
0.1055,0.0392889156937599,0.0,0.0
0.1059999999999999,0.039276860654354,0.0006103515625,0.0
0.1065,0.0392649210989475,0.00030517578125,0.0
0.1069999999999999,0.0392525419592857,0.0,0.0
0.1075,0.0392402000725269,0.00091552734375,0.0
0.1079999999999999,0.0392279922962188,0.0006103515625,0.0
0.1085,0.0392155013978481,0.0006103515625,0.0
0.1089999999999999,0.0392034724354743,0.0006103515625,0.0
0.1095,0.0391912870109081,0.00030517578125,0.0
0.1099999999999999,0.0391789898276329,0.00030517578125,0.0
0.1105,0.0391669645905494,0.00030517578125,0.0
0.1109999999999999,0.039154764264822,0.00091552734375,0.0
0.1115,0.039142407476902,0.00030517578125,0.0
0.1119999999999999,0.0391303114593029,0.0,0.0
0.1125,0.0391178205609321,0.0006103515625,0.0
0.1129999999999999,0.039105899631977,0.0,0.0
0.1135,0.0390935279428958,0.0006103515625,0.0
0.1139999999999999,0.0390812791883945,0.0006103515625,0.0
0.1145,0.0390690043568611,0.00030517578125,0.0
0.1149999999999999,0.039057083427906,0.0006103515625,0.0
0.1155,0.0390445105731487,0.0,0.0
0.1159999999999999,0.0390325412154197,0.00030517578125,0.0
0.1165,0.0390201583504676,0.0006103515625,0.0
0.1169999999999999,0.0390078835189342,0.0006103515625,0.0
0.1175,0.0389958396553993,0.0006103515625,0.0
0.118,0.0389834493398666,0.00030517578125,0.0
0.1185,0.0389713607728481,0.00030517578125,0.0
0.119,0.0389589481055736,0.00091552734375,0.0
0.1195,0.0389466881752014,0.0,0.0
0.12,0.0389346331357955,0.0006103515625,0.0
0.1205,0.0389224141836166,0.0006103515625,0.0
0.121,0.038910262286663,0.00091552734375,0.0
0.1215,0.0388980321586132,0.0006103515625,0.0
0.122,0.0388853475451469,0.0006103515625,0.0
0.1225,0.038873303681612,0.00030517578125,0.0
0.123,0.0388609915971756,0.00091552734375,0.0
0.1235,0.0388487726449966,0.00091552734375,0.0
0.124,0.0388363599777221,0.0,0.0
0.1245,0.0388245619833469,0.0006103515625,0.0
0.125,0.0388121306896209,0.00030517578125,0.0
0.1254999999999999,0.0388002730906009,0.00030517578125,0.0
0.126,0.0387877635657787,0.0006103515625,0.0
0.1264999999999999,0.0387755967676639,0.0006103515625,0.0
0.127,0.0387633219361305,0.0,0.0
0.1274999999999999,0.0387511700391769,0.0006103515625,0.0
0.128,0.0387390777468681,0.00091552734375,0.0
0.1284999999999999,0.0387268289923667,0.0006103515625,0.0
0.129,0.0387145839631557,0.0006103515625,0.0
0.1294999999999999,0.038702443242073,0.00030517578125,0.0
0.13,0.0386901348829269,0.00030517578125,0.0
0.1304999999999999,0.0386781357228755,0.00030517578125,0.0
0.131,0.0386657305061817,0.00030517578125,0.0
0.1314999999999999,0.0386533960700035,0.0006103515625,0.0
0.132,0.0386413410305976,0.0006103515625,0.0
0.1324999999999999,0.0386293902993202,0.00091552734375,0.0
0.133,0.038617119193077,0.0006103515625,0.0
0.1334999999999999,0.0386051461100578,0.00030517578125,0.0
0.134,0.0385926514863967,0.0,0.0
0.1344999999999999,0.0385804995894432,0.0006103515625,0.0
0.135,0.0385682061314582,0.00030517578125,0.0
0.1354999999999999,0.0385560020804405,0.0006103515625,0.0
0.136,0.0385437943041324,0.00030517578125,0.0
0.1364999999999999,0.0385317206382751,0.0006103515625,0.0
0.137,0.0385191775858402,0.001220703125,0.0
0.1374999999999999,0.038506880402565,0.0006103515625,0.0
0.138,0.0384948141872882,0.0006103515625,0.0
0.1384999999999999,0.0384826362133026,0.00030517578125,0.0
0.139,0.0384702794253826,0.00091552734375,0.0
0.1394999999999999,0.0384580641984939,0.00030517578125,0.0
0.14,0.0384459272027015,0.00091552734375,0.0
0.1404999999999999,0.0384337268769741,0.00030517578125,0.0
0.141,0.038421344012022,-0.00030517578125,0.0
0.1414999999999999,0.038409374654293,0.00091552734375,0.0
0.142,0.0383969545364379,0.00030517578125,0.0
0.1424999999999999,0.0383848622441291,0.0006103515625,0.0
0.143,0.0383725352585315,0.0,0.0
0.1434999999999999,0.0383605808019638,0.00030517578125,0.0
0.144,0.0383481234312057,0.0006103515625,0.0
0.1444999999999999,0.0383358784019947,0.0006103515625,0.0
0.145,0.0383236818015575,0.0,0.0
0.1454999999999999,0.0383114255964756,0.0006103515625,0.0
0.146,0.0382991656661033,0.00030517578125,0.0
0.1464999999999999,0.038286954164505,0.00030517578125,0.0
0.147,0.0382749736309051,0.00030517578125,0.0
0.1474999999999999,0.0382623337209224,0.00030517578125,0.0
0.148,0.0382503941655159,0.00030517578125,0.0
0.1484999999999999,0.0382383354008197,0.0,0.0
0.149,0.0382257923483848,0.00030517578125,0.0
0.1494999999999999,0.0382135733962059,0.00030517578125,0.0
0.15,0.0382016599178314,0.0006103515625,0.0
0.1504999999999999,0.0381894148886203,0.00030517578125,0.0
0.151,0.0381769351661205,0.0,0.0
0.1514999999999999,0.0381649173796176,0.0006103515625,0.0
0.152,0.0381525568664073,0.0006103515625,0.0
0.1524999999999999,0.0381401777267456,0.00030517578125,0.0
0.153,0.0381281375885009,0.00030517578125,0.0
0.1534999999999999,0.0381156839430332,0.00030517578125,0.0
0.154,0.0381034575402736,0.00030517578125,0.0
0.1544999999999999,0.0380911342799663,0.0,0.0
0.155,0.0380792468786239,0.0006103515625,0.0
0.1554999999999999,0.0380666553974151,0.0006103515625,0.0
0.156,0.0380544103682041,0.0006103515625,0.0
0.1564999999999999,0.038042165338993,0.0006103515625,0.0
0.157,0.0380302146077156,0.0006103515625,0.0
0.1574999999999999,0.0380177795886993,0.0006103515625,0.0
0.158,0.0380056425929069,0.0006103515625,0.0
0.1584999999999999,0.0379934906959533,0.0006103515625,0.0
0.159,0.0379812903702259,0.0006103515625,0.0
0.1594999999999999,0.0379690043628215,0.00030517578125,0.0
0.16,0.037956990301609,0.0,0.0
0.1604999999999999,0.037944808602333,0.0006103515625,0.0
0.161,0.0379324294626712,0.0006103515625,0.0
0.1614999999999999,0.0379203334450721,0.00030517578125,0.0
0.162,0.0379084646701812,0.00030517578125,0.0
0.1624999999999999,0.0378958098590374,0.0,0.0
0.163,0.0378837995231151,0.00030517578125,0.0
0.1634999999999999,0.0378714241087436,0.00030517578125,0.0
0.164,0.0378591455519199,0.00091552734375,0.0
0.1644999999999999,0.0378467217087745,0.0,0.0
0.165,0.0378349348902702,0.0006103515625,0.0
0.1654999999999999,0.0378226786851882,0.001220703125,0.0
0.166,0.0378103516995906,0.00030517578125,0.0
0.1664999999999999,0.0377977304160594,0.0006103515625,0.0
0.167,0.0377858728170394,0.00091552734375,0.0
0.1674999999999999,0.037773847579956,0.00030517578125,0.0
0.168,0.037761315703392,0.0006103515625,0.0
0.1684999999999999,0.0377492681145668,0.0006103515625,0.0
0.169,0.0377372056245803,0.00030517578125,0.0
0.1694999999999999,0.0377244986593723,0.00030517578125,0.0
0.17,0.0377123728394508,0.00030517578125,0.0
0.1704999999999999,0.0377003848552703,0.0006103515625,0.0
0.171,0.0376880764961242,0.0006103515625,0.0
0.1714999999999999,0.0376758798956871,-0.00030517578125,0.0
0.172,0.0376632511615753,0.0006103515625,0.0
0.1725,0.0376512706279754,0.00030517578125,0.0
0.173,0.0376391038298606,0.00091552734375,0.0
0.1735,0.0376267619431018,0.0006103515625,0.0
0.174,0.0376147665083408,0.00030517578125,0.0
0.1745,0.0376023799180984,0.00091552734375,0.0
0.175,0.0375901833176612,0.0006103515625,0.0
