Time [s],Lmtc [m],STIM [ ],Fsee [N],Gamma [ ],Lcerel [ ]
0.0,0.0215249562613098,0.999999815188348,0.5235509017155228,0.0491235599326323,1.2576221065680253
0.0026516993641928,0.0215839532431255,0.9999998174939572,1.876186442933744,0.0918472501566882,1.257622103726293
0.0053033987283857,0.0216128204762876,0.9999997890159908,3.223206522378118,0.1326513282358863,1.2569414666011836
0.0079550980925785,0.0215847045947283,0.999999717748864,4.27861984657808,0.171622042616329,1.253326747467605
0.0106067974567714,0.0215283486426128,0.9999996185412564,4.988960054954267,0.2088417659876353,1.2484600574561366
0.0132584968209643,0.021457933301546,0.9999994990798888,5.461505635844765,0.2443891706305954,1.2430194624270618
0.0159101961851571,0.0213803252777108,0.9999993655152428,5.793234954386167,0.2783393943579405,1.2372969672426768
0.01856189554935,0.021298914092917,0.9999992230184656,6.042920495497616,0.310764199252018,1.2314310999404134
0.0212135949135429,0.0212154527652321,0.9999990758356756,6.243189768018454,0.3417321232952667,1.2254934757501066
0.0238652942777357,0.0211308971559173,0.9999989273421892,6.4121542324352365,0.3713086251902439,1.2195237008184832
0.0265169936419286,0.021045794065115,0.9999987801372854,6.5601575547837525,0.3995562226752013,1.2135447939971655
0.0291686930061215,0.0209604687181311,0.9999986361596804,6.693329210109987,0.4265346246292799,1.2075705930923148
0.0318203923703143,0.0208751201782052,0.9999984968044722,6.815442240920066,0.4523008572472922,1.2016095745735595
0.0344720917345072,0.0207898724537135,0.9999983630303776,6.928905588713123,0.4769093845506191,1.1956669452934283
0.0371237910987001,0.0207048031920284,0.9999982354524466,7.035310802946389,0.5004122234882642,1.1897458470364404
0.0397754904628929,0.0206199604799672,0.9999981144192812,7.135743358982525,0.5228590538704851,1.1838480801567046
0.0424271898270858,0.0205353730505178,0.9999980000757484,7.230965745284018,0.544297323366481,1.177974554109843
0.0450788891912786,0.0204510566869476,0.9999978924130276,7.3215284554772495,0.564772347787263,1.1721255765552256
0.0477305885554715,0.0203670183553226,0.9999977913080323,7.407839192510274,0.5843274068649743,1.1663010436772778
0.0503822879196644,0.0202832589368176,0.9999976965541488,7.490207148254373,0.603003835730537,1.1605005682150105
0.0530339872838572,0.0201997750725335,0.9999976078849968,7.568872016504315,0.6208411122825076,1.1547235671648064
0.0556856866480501,0.0201165604316724,0.9999975249926476,7.644023422829425,0.6378769406314451,1.1489693227689155
0.058337386012243,0.0200336065966772,0.9999974475414708,7.71581420137852,0.6541473307958684,1.1432370254462043
0.0609890853764358,0.019950903688889,0.9999973751785524,7.784369637800754,0.669686674818027,1.1375258042978986
0.0636407847406287,0.0198684408153131,0.999997307541433,7.849794016177752,0.6845278194601954,1.1318347489293947
0.0662924841048216,0.0197862063901125,0.999997244263749,7.912175331710647,0.6987021356350042,1.126162925118795
0.0689441834690144,0.0197041883671462,0.9999971849792388,7.971588734607467,0.7122395847164639,1.1205093860724071
0.0715958828332073,0.0196223744085532,0.9999971293244678,8.028099082637405,0.7251687818717546,1.1148731804816776
0.0742475821974002,0.0195407520068456,0.9999970769405478,8.08176285839762,0.7375170565475856,1.1092533582403714
0.076899281561593,0.0194593085728711,0.9999970274740584,8.132629627584535,0.7493105102389324,1.1036489744365627
0.0795509809257859,0.0193780314985005,0.9999969805773308,8.180743161353043,0.7605740716622096,1.0980590920638436
0.0822026802899787,0.0192969082004508,0.9999969359082144,8.226142309826056,0.7713315494494835,1.0924827837761686
0.0848543796541716,0.0192159261499305,0.999996893129408,8.268861689095985,0.781605682475074,1.0869191329250838
0.0875060790183645,0.0191350728915638,0.9999968519074188,8.308932226875273,0.7914181879209127,1.0813672340562923
0.0901577783825573,0.0190543360541574,0.9999968119111852,8.346381599862086,0.800789807182233,1.075826192997498
0.0928094777467502,0.0189737033552305,0.9999967728103784,8.381234587282503,0.8097403497106187,1.0702951266363412
0.0954611771109431,0.0188931625961715,0.9999967342733894,8.413513068149868,0.8182887348870651,1.064773162462717
0.0981128764751359,0.0188126989804324,0.9999966959649784,8.443065810662224,0.8264530320135652,1.0592594379313816
0.1007645758393288,0.0187322982313696,0.9999966575435584,8.469766512035127,0.8342504985077277,1.0537530996869613
0.1034162752035217,0.0186519484229075,0.9999966186580574,8.493631895080224,0.8416976163811545,1.0482533026829792
0.1060679745677145,0.0185716376786036,0.9999965789442908,8.514676607347067,0.84881012707868,1.0427592092185047
0.1087196739319074,0.0184913541594602,0.999996538020742,8.532913335735559,0.8556030647520816,1.037269987909877
0.1113713732961002,0.0184110860505061,0.9999964954836296,8.54835290216861,0.8620907880385906,1.0317848126101634
0.1140230726602931,0.01833082154634,0.999996450901091,8.561004343279862,0.8682870104113422,1.0263028612852914
0.116674772024486,0.0182505488357722,0.9999964038062694,8.57087497645302,0.8742048291658914,1.0208233148528432
0.1193264713886788,0.0181702560856583,0.9999963536890256,8.577970454066403,0.8798567531040336,1.0153453559871506
0.1219781707528717,0.0180899314239776,0.999996299985909,8.582294807416211,0.8852547289733889,1.0098681678924235
0.1246298701170646,0.0180095629175204,0.9999962420679062,8.583850182007074,0.8904101667185889,1.0043909330441043
0.1272815694812575,0.0179291395735295,0.9999961792278024,8.582702695094484,0.8953339635973506,0.9989128315016824
0.1299332688454503,0.0178486479191267,0.9999961106721298,8.578669534748883,0.9000365272124279,0.993433140049026
0.1325849682096432,0.0177680781797508,0.9999960354971118,8.571599660283978,0.904527797508356,0.9879513553541088
0.1352366675738361,0.0176874232355627,0.9999959526535376,8.561490292088278,0.9088172677787822,0.9824669992837952
0.137888366938029,0.0176066758600094,0.9999958609099152,8.54833760804841,0.9129140047283416,0.97697958928224
0.1405400663022218,0.0175258287133604,0.9999957588054376,8.532136746573281,0.9168266676314784,0.9714886379532056
0.1431917656664147,0.0174448743356809,0.9999956445882334,8.512881806503938,0.9205635266283346,0.9659936526151406
0.1458434650306076,0.0173638051392407,0.999995516133174,8.49056584409184,0.9241324801958096,0.9604941348291056
0.1484951643948005,0.0172826134003535,0.999995370830826,8.465180867182507,0.92754107182994,0.9549895798992796
0.1511468637589934,0.017201291250632,0.9999952054349296,8.436717826702381,0.9307965059737394,0.949479476345442
0.1537985631231862,0.0171198306676401,0.9999950158490676,8.405166605512585,0.9339056632225252,0.9439633053465154
0.1564502624873791,0.017038223464915,0.9999947968221616,8.370516004663074,0.9368751148364802,0.9384405401539496
0.159101961851572,0.016956461281329,0.9999945415037688,8.332753727053678,0.939711136587466,0.9329106454734524
0.1617536612157649,0.01687453556975,0.9999942407775398,8.291866358482949,0.942419721963709,0.927373076813265
0.1644053605799577,0.0167924375849587,0.9999938822319272,8.247839346042348,0.9450065947512382,0.9218272797969004
0.1670570599441506,0.0167101583707686,0.9999934485147584,8.200656973789489,0.947477221003784,0.9162726894379573
0.1697087593083435,0.0166276887462909,0.9999929145935902,8.150302335610677,0.9498368204009277,0.910708729374318
0.1723604586725364,0.0165450192912785,0.9999922429669416,8.09675730515708,0.9520903769728244,0.9051348110586944
0.1750121580367293,0.0164621403304715,0.9999913747835484,8.04000250270928,0.9542426491278988,0.899550332902165
0.1776638574009221,0.016379041916863,0.9999902121126564,7.980017258785911,0.9562981788309668,0.8939546793669543
0.180315556765115,0.0162957138137869,0.9999885790296678,7.916779574253338,0.9582612995723708,0.8883472200043554
0.1829672561293079,0.0162121454757246,0.9999861246415542,7.850266076587925,0.9601361422306198,0.8827273084333142
0.1856189554935008,0.0161283260277097,0.9999820335329908,7.78045197173403,0.9619266363144884,0.8770942812549737
0.1882706548576936,0.0160442442432069,0.9999738767957266,7.707310990738026,0.9636364981394984,0.871447456898742
0.1909223542218865,0.015959888520462,0.9999497200638492,7.630815335508239,0.9652691679117368,0.8657861343984178
0.1935740535860794,0.0158752811385985,0.6286311593437841,7.552999249398111,0.9668273950522496,0.8601095921224485
0.1962257529502723,0.0157903050050794,1.682854635995753e-05,7.46496670331905,0.9331451534657492,0.8544200062349238
0.1988774523144652,0.0157047312364312,6.461384274233304e-06,7.345190890040673,0.8402113516042207,0.8487266835184472
0.201529151678658,0.0156189594228678,3.2345908431653525e-06,7.208210885379592,0.756532247508477,0.8430409072202119
0.2041808510428509,0.015533025299313,1.80557299917788e-06,7.049102472514228,0.681186831858987,0.8373714829274316
0.2068325504070438,0.0154469918608792,1.0704527254808078e-06,6.861693773084179,0.6133452910537879,0.8317309640607108
0.2094842497712367,0.0153609683422472,6.605384464829405e-07,6.638705782179821,0.5522603467324333,0.8261370520820434
0.2121359491354295,0.0152751425588329,4.204234063975525e-07,6.372366406164373,0.4972591089090843,0.8206144570558963
0.2147876484996224,0.0151898336106439,2.7503957024496604e-07,6.055771955688615,0.4477356885135852,0.8151973221571949
0.2174393478638153,0.0151055715758211,1.8484456282721077e-07,5.685147098009271,0.4031445324449634,0.809932296194255
0.2200910472280082,0.0150232050203262,1.2777720253999664e-07,5.262709282360869,0.3629944179563299,0.8048822662473141
0.222742746592201,0.0149440230647264,9.103941498616314e-08,4.7990841740889625,0.3268430433711378,0.8001305909041754
0.2253944459563939,0.0148698598050411,6.70049416086401e-08,4.313645895678625,0.2942921567179034,0.7957853572707547
0.2280461453205868,0.0148031399423975,5.1045705289829615e-08,3.83166921941013,0.2649831691204686,0.7919828151663066
0.2306978446847797,0.0147468338364471,4.0325947402266805e-08,3.3785740882799224,0.2385932048556271,0.7888892022464006
0.2333495440489726,0.0147042501295442,3.31119510534414e-08,2.971135355881416,0.2148315446846652,0.7866995091272165
0.2360012434131654,0.0146774321410374,2.8236591939434162e-08,2.57357854302364,0.1934364233421031,0.7856154804513313
0.2386529427773583,0.0146593212687468,2.442838227710069e-08,1.976525396441132,0.1741721459248125,0.7856153985013009
0.2413046421415512,0.0146427162026999,2.0999482666466593e-08,1.498229868587547,0.1568264914071733,0.785615390568561
0.2439563415057441,0.0146278329742881,1.7912086300272044e-08,1.125747643946331,0.141208374821333,0.7856153859358301
0.2466080408699369,0.0146147393814164,1.5132179993662414e-08,0.8419972944558929,0.1271457422789385,0.7856153824308697
0.2492597402341298,0.0146033973709197,1.262913895210378e-08,0.6294517698452649,0.1144836755735528,0.7856153794718042
0.2519114395983227,0.0145937027870955,1.0375388653933976e-08,0.4722430122768301,0.1030826855549139,0.7856153768208122
0.2545631389625156,0.0145855161613193,8.346100929101671e-09,0.3570479275992552,0.0928171754743353,0.7856153743588591
0.2572148383267084,0.0145786836181747,6.51892039540753e-09,0.2732164113304748,0.0835740573729974,0.7856153720189134
0.2598665376909013,0.0145730494096296,4.8737181641783875e-09,0.2125137603899655,0.075251506270845,0.7856153697602974
0.2625182370550941,0.0145684623971592,3.392370083983286e-09,0.1687178168705278,0.0677578384318603,0.7856153675570706
0.265169936419287,0.014564778849731,2.3089592889969066e-07,0.1372025565032242,0.0610105013483418,0.7856153653921175
0.2653094995437182,0.0146336684527932,2.305028823126597e-07,1.2654665548991093,0.0606746101909386,0.7856153653921168
0.2654490626681494,0.0147000272141841,2.3107065658114638e-07,1.2686665457892998,0.0603405685784105,0.7901276096910422
0.2655886257925806,0.0147664498914055,2.316784822708345e-07,1.271846926238176,0.0600083663317365,0.7946442738645713
0.2657281889170118,0.0148329372099705,2.3232729248953405e-07,1.2750074403788894,0.0596779933228749,0.7991654078028739
0.265867752041443,0.0148994898869564,2.330180719883961e-07,1.2781478272925526,0.0593494394795584,0.8036910608348333
0.2660073151658741,0.0149661086309535,2.3375185985999362e-07,1.2812678209013388,0.0590226947849867,0.8082212817248244
0.2661468782903053,0.0150327941420127,2.34529752431082e-07,1.2843671498598896,0.0586977492775216,0.812756118669366
0.2662864414147365,0.0150995471115899,2.3535290636560095e-07,1.2874455374450442,0.0583745930503837,0.8172956192936434
0.2664260045391677,0.0151663682224896,2.362225419949542e-07,1.2905027014438144,0.0580532162513506,0.8218398306478979
0.2665655676635989,0.0152332581488056,2.371399468942412e-07,1.2935383540396417,0.0577336090824565,0.8263887992036797
0.2667051307880301,0.0153002175558595,2.381064797249268e-07,1.2965522016968605,0.0574157617996944,0.8309425708499599
0.2668446939124613,0.0153672471001382,2.391235743664462e-07,1.2995439450433832,0.0570996647127188,0.8355011908891018
0.2669842570368925,0.0154343474292275,2.401927443614799e-07,1.3025132787515603,0.0567853081845512,0.8400647040326831
0.2671238201613237,0.0155015191817445,2.413155877021113e-07,1.305459891417204,0.0564726826312861,0.8446331543971679
0.2672633832857549,0.0155687629872675,2.4249379198685404e-07,1.3083834654367534,0.0561617785217996,0.8492065854994268
0.2674029464101861,0.015636079466263,2.437291399816189e-07,1.3112836768825316,0.0558525863774593,0.8537850402520967
0.2675425095346173,0.0157034692300112,2.450235156211393e-07,1.3141601953761284,0.0555450967718353,0.858368560958781
0.2676820726590485,0.0157709328805278,2.4637891049122683e-07,1.3170126839598126,0.055239300330414,0.8629571893090867
0.2678216357834797,0.0158384710104841,2.47797430836546e-07,1.3198407989660237,0.0549351877303123,0.8675509663734888
0.2679611989079109,0.0159060842031244,2.492813051434396e-07,1.322644189884857,0.0546327496999942,0.8721499325980276
0.2681007620323421,0.0159737730321799,2.5083289235277264e-07,1.3254224992295836,0.0543319770189885,0.8767541277988258
0.2682403251567733,0.0160415380617815,2.524546907638812e-07,1.3281753624001174,0.0540328605176086,0.8813635911564269
0.2683798882812045,0.0161093798463677,2.541493476976029e-07,1.3309024075444715,0.0537353910766736,0.8859783612099531
0.2685194514056357,0.0161772989305916,2.559196699941481e-07,1.3336032554181383,0.0534395596272306,0.8905984758510715
0.2686590145300669,0.0162452958492236,2.577686354303579e-07,1.3362775192414071,0.0531453571502798,0.8952239723177703
0.2687985776544981,0.0163133711270519,2.596994051508541e-07,1.338924804554578,0.0528527746764994,0.8998548871879396
0.2689381407789293,0.0163815252787795,2.617153372188793e-07,1.3415447090710586,0.052561803285974,0.9044912563727532
0.2690777039033605,0.0164497588089185,2.638200014054538e-07,1.344136822528362,0.0522724341079229,0.9091331151098472
0.2692172670277917,0.0165180722116809,2.660171953500916e-07,1.3467007265369255,0.0519846583204312,0.9137804979562888
0.2693568301522229,0.0165864659708664,2.683109622429703e-07,1.3492359944268102,0.0516984671501818,0.9184334387813348
0.2694963932766541,0.0166549405597468,2.7070561019750297e-07,1.35174219109221,0.051413851872189,0.9230919707589744
0.2696359564010853,0.016723496440947,2.73205733504058e-07,1.3542188728338045,0.051130803809534,0.9277561263602496
0.2697755195255165,0.0167921340663224,2.758162359806001e-07,1.3566655871989035,0.050849314333102,0.9324259373453528
0.2699150826499477,0.0168608538768337,2.785423566648001e-07,1.3590818728194265,0.0505693748613202,0.9371014347554962
0.2700546457743789,0.0169296563024168,2.813896981253279e-07,1.361467259247673,0.0502909768598984,0.9417826489045434
0.2701942088988101,0.01699854176185,2.843642577083498e-07,1.3638212667898866,0.0500141118415699,0.9464696093704066
0.2703337720232412,0.0170675106626175,2.874724620796125e-07,1.3661434063376316,0.0497387713658357,0.9511623449862028
0.2704733351476724,0.0171365634007685,2.907212054739819e-07,1.368433179196971,0.0494649470387086,0.9558608838311594
0.2706128982721036,0.0172057003607731,2.9411789212421417e-07,1.3706900769154329,0.04919263051246,0.9605652532212694
0.2707524613965348,0.0172749219153739,2.9767048341062855e-07,1.3729135811068025,0.0489218134853677,0.9652754796996904
0.270892024520966,0.0173442284254341,3.013875503551175e-07,1.3751031632737432,0.0486524877014661,0.9699915890268852
0.2710315876453972,0.0174136202397808,3.052783321788289e-07,1.377258284628216,0.0483846449502973,0.9747136061704902
0.2711711507698284,0.0174830976950449,3.09352801755695e-07,1.3793783959097836,0.0481182770666641,0.97944155529492
0.2713107138942596,0.0175526611154962,3.1362173892711544e-07,1.3814629372017535,0.047853375930385,0.9841754597506948
0.2714502770186908,0.0176223108128751,3.180968128006876e-07,1.3835113377452213,0.0475899334660509,0.9889153420634847
0.271589840143122,0.0176920470862188,3.227906743430078e-07,1.385523015751014,0.0473279416427831,0.993661223922872
0.2717294032675532,0.0177618702216566,3.277170607910669e-07,1.3874973775033943,0.0470673924739937,0.9984131261708222
0.2718689663919844,0.0178317804917276,3.328909134478123e-07,1.3894338053940472,0.0468082780171478,1.0031710687868591
0.2720085295164156,0.0179017781548424,3.383285111481471e-07,1.3913316593544844,0.0465505903735275,1.0079350708475587
0.2721480926408468,0.0179718634565082,3.4404762260750285e-07,1.3931903095369973,0.0462943216879976,1.0127051505239328
0.272287655765278,0.0180420366286329,3.500676797675015e-07,1.395009115639215,0.0460394641487746,1.017481325088741
0.2724272188897092,0.0181122978892701,3.5640997578306186e-07,1.3967874251656185,0.0457860099871964,1.0222636109038132
0.2725667820141404,0.0181826474424131,3.630978919853873e-07,1.398524573226349,0.0455339514774956,1.027052023406677
0.2727063451385716,0.0182530854777844,3.701571588914032e-07,1.4002198823342904,0.0452832809365745,1.0318465770968526
0.2728459082630028,0.0183236121706198,3.776161573689863e-07,1.4018726622005837,0.0450339907237833,1.0366472855218245
0.272985471387434,0.0183942276814474,3.855062673531098e-07,1.4034822095285366,0.0447860732407007,1.041454161262671
0.2731250345118652,0.0184649321558617,3.938622731064786e-07,1.4050478078061353,0.0445395209309183,1.0462672159193562
0.2732645976362964,0.018535725724292,4.0272283601614885e-07,1.4065687270971312,0.0442943262798275,1.0510864600956702
0.2734041607607276,0.0186066085017654,4.121310484291153e-07,1.4080442238308912,0.0440504818144109,1.055911903383823
0.2735437238851588,0.0186775805876651,4.221350852059185e-07,1.409473540591058,0.0438079801030381,1.0607435543486754
0.27368328700959,0.0187486421308074,4.327889737132402e-07,1.410857605591369,0.043566813755265,1.065581420511613
0.2738228501340212,0.0188197988604497,4.44153508154758e-07,1.4123430259965006,0.0433269754216398,1.0704255083340428
0.2739624132584524,0.0188910544873805,4.5629734082057684e-07,1.4140245594426473,0.0430884577935145,1.0752758232005255
0.2741019763828836,0.0189624090661076,4.692982915201089e-07,1.4159023338092889,0.042851253602863,1.0801323694015204
0.2742415395073148,0.0190338626327933,4.832449278418707e-07,1.4179764639064636,0.0426153556221088,1.0849951501157504
0.274381102631746,0.0191054152049844,4.982384839180559e-07,1.4202470509757934,0.0423807566639605,1.0898641673921756
0.2745206657561772,0.0191770667813387,5.143952054152642e-07,1.4227141821846467,0.0421474495812603,1.0947394221315692
0.2746602288806083,0.0192488173413466,5.318492354511542e-07,1.4253779301134375,0.0419154272668456,1.0996209140676918
0.2747997920050395,0.01932066684505,5.507561928225146e-07,1.428238352236133,0.041684682653427,1.104508641748061
0.2749393551294707,0.0193926152327552,5.712976443660208e-07,1.4312954903939532,0.0414552087134875,1.109402602514307
0.2750789182539019,0.0194646624247428,5.936867434337522e-07,1.4345493702623766,0.0412269984592059,1.114302792482105
0.2752184813783331,0.0195368083209725,6.181754053122753e-07,1.438000000811495,0.0410000449424125,1.1192092065206931
0.2753580445027643,0.019609052800783,6.45063531598569e-07,1.4416473737598228,0.0407743412545838,1.1241218382319489
