Time [s],Lmtc [m],STIM [ ],Fsee [N],Gamma [ ],Lcerel [ ]
0.0,0.0219586357418262,0.9999998185320448,1.822691134202704,0.1020204690256637,1.2832719325646813
0.0020924685221556,0.0219338006878143,0.9999997734101846,2.6947943890442234,0.1340121165380372,1.279766538719142
0.0041849370443113,0.0218819127094724,0.9999997065345786,3.411919367177057,0.1648640196290897,1.2749526996202127
0.006277405566467,0.0218155693219444,0.9999996220307884,3.954510852730477,0.1946167823571105,1.2695527240785416
0.0083698740886226,0.0217412035814598,0.9999995236674694,4.358273779127177,0.2233095623565495,1.2638699550259989
0.0104623426107783,0.0216623822371996,0.9999994149492796,4.666676383848714,0.250980122355977,1.2580481633669092
0.012554811132934,0.0215810996051434,0.9999992990015542,4.912095089696131,0.2776648798639606,1.252161480367174
0.0146472796550896,0.0214984932597845,0.9999991785030556,5.115627788708267,0.3033989550807121,1.2462507036342232
0.0167397481772453,0.0214152296874995,0.9999990556773192,5.290546059132171,0.3282162171004244,1.2403393607599449
0.018832216699401,0.0213317097234502,0.9999989323214604,5.445213472343723,0.3521493284672854,1.2344414279062823
0.0209246852215566,0.0212481795679686,0.9999988098535576,5.584990805122453,0.3752297881451521,1.228565312889811
0.0230171537437123,0.0211647924422596,0.9999986893662444,5.713394026942524,0.397487972958065,1.2227160379182516
0.025109622265868,0.0210816439438391,0.9999985716793878,5.832787415485736,0.4189531775563008,1.216896497303118
0.0272020907880237,0.0209987929867116,0.9999984573882384,5.944801185713566,0.4396536529604605,1.2111082131558972
0.0292945593101793,0.0209162745893601,0.9999983469055592,6.050587158188438,0.4596166437340923,1.205351805606992
0.031387027832335,0.0208341079062768,0.9999982404974566,6.150978377454548,0.4788684238334921,1.19962729406581
0.0334794963544907,0.0207523014006447,0.9999981383132704,6.246590854653634,0.4974343311815872,1.1939342949922809
0.0355719648766463,0.0206708562507142,0.9999980404101608,6.337889772154037,0.5153388010111464,1.1882721543781538
0.037664433398802,0.0205897686370327,0.999997946773124,6.425233430857317,0.5326053980209717,1.1826400379701076
0.0397569019209577,0.0205090313041745,0.9999978573311548,6.508902981510435,0.5492568473871995,1.177036993528693
0.0418493704431133,0.0204286346423585,0.999997771970211,6.589122902118059,0.5653150646703582,1.17146199422271
0.043941838965269,0.0203485674454067,0.9999976905435444,6.66607534151947,0.580801184657414,1.165913969083495
0.0460343074874247,0.0202688174468649,0.9999976128798876,6.739910326996587,0.5957355891766491,1.1603918244540192
0.0481267760095803,0.0201893717018144,0.9999975387898936,6.810753137656317,0.6101379339218909,1.1548944590929398
0.050219244531736,0.020110216859927,0.9999974680711632,6.878709705878389,0.6240271743213245,1.149420774760478
0.0523117130538917,0.0200313393609776,0.9999974005121276,6.943870627003193,0.6374215904848747,1.1439696835584234
0.0544041815760473,0.0199527255745056,0.9999973358950024,7.006314173404241,0.6503388112629452,1.138540112921444
0.056496650098203,0.0198743618988915,0.9999972739979948,7.066108587212097,0.6627958374481385,1.1331310088993172
0.0585891186203587,0.0197962348307224,0.9999972145968924,7.123313844074242,0.6748090641504652,1.127741338190536
0.0606815871425143,0.0197183310122663,0.999997157466158,7.177983024573855,0.686394302375465,1.1223700892615764
0.06277405566467,0.0196406372627375,0.9999971023796074,7.230163391467794,0.6975667998336171,1.1170162727962454
0.0648665241868257,0.019563140597511,0.9999970491107422,7.27989724405053,0.7083412610084163,1.1116789216549516
0.0669589927089813,0.0194858282383551,0.9999969974327916,7.327222601986336,0.7187318665095072,1.106357090476836
0.069051461231137,0.0194086876169575,0.9999969471184994,7.372173757413325,0.7287522917363416,1.101049855023407
0.0711439297532927,0.0193317063734444,0.9999968979396848,7.414781724357263,0.7384157248769132,1.09575631133701
0.0732363982754483,0.0192548723511637,0.9999968496665956,7.455074607379891,0.7477348842652457,1.0904755747687334
0.075328866797604,0.0191781735886879,0.9999968020670624,7.493077906157013,0.7567220351204795,1.0852067789162887
0.0774213353197597,0.0191015983097548,0.9999967549054564,7.528814768802452,0.7653890056895734,1.0799490745019251
0.0795138038419153,0.0190251349116871,0.9999967079414448,7.562306203852361,0.7737472028148669,1.0747016282124742
0.081606272364071,0.0189487719526953,0.999996660928527,7.593571258635685,0.7818076269469851,1.0694636215175928
0.0836987408862267,0.0188724980866832,0.999996613612336,7.622624044359523,0.7895808866228359,1.06423424947773
0.0857912094083823,0.0187962992214911,0.999996565728668,7.649302524774487,0.7970772124277505,1.0590127195497945
0.087883677930538,0.018720162648894,0.999996517001203,7.673518732112512,0.8043064704601356,1.0537982503958452
0.0899761464526937,0.018644077465831,0.9999964671388628,7.695286184505015,0.8112781753163466,1.048590070698043
0.0920686149748493,0.0185680328509709,0.9999964158327398,7.714616833321164,0.8180015026128674,1.043387417981499
0.094161083497005,0.0184920180496512,0.9999963627525086,7.731521133926262,0.8244853010622614,1.0381895374454015
0.0962535520191606,0.0184160223586286,0.9999963075422172,7.746008106103477,0.8307381041187711,1.032995680801834
0.0983460205413163,0.0183400351106527,0.9999962498153184,7.758085385448354,0.8367681412088833,1.0278051051208912
0.100438489063472,0.018264045658861,0.9999961891487712,7.767759266804583,0.8425833485616081,1.0226170716800955
0.1025309575856276,0.018188043360977,0.9999961250759892,7.775034740614017,0.8481913796527133,1.017430844815582
0.1046234261077833,0.0181120175632886,0.999996057078358,7.779915522893872,0.8535996152766094,1.0122456907720772
0.106715894629939,0.0180359575843684,0.9999959845749564,7.782404079422139,0.858815173259118,1.007060876548336
0.1088083631520946,0.0179598528622408,0.9999959069102162,7.782511650980742,0.8638449178238365,1.001875668734321
0.1109008316742503,0.0178836935322523,0.9999958233447438,7.780284380416564,0.86869546862438,0.9966893437344184
0.112993300196406,0.0178074666799276,0.9999957330448666,7.775424313553947,0.8733732094545077,0.9915013551292752
0.1150857687185616,0.0177311653660187,0.999995635052762,7.767896345401556,0.877884296647571,0.9863112720710028
0.1171782372407173,0.0176547831577907,0.9999955282549422,7.757697741178271,0.8822346671756516,0.9811186636768984
0.119270705762873,0.0175783135350232,0.9999954113461614,7.744824918294707,0.8864300464590409,0.9759230956134028
0.1213631742850286,0.0175017498837899,0.9999952827831357,7.729273446738461,0.890475955896208,0.9707241296972648
0.1234556428071843,0.0174250854898684,0.9999951407244628,7.711038047365428,0.8943777201238516,0.965521323480602
0.12554811132934,0.0173483135317664,0.999994982951669,7.69011258817701,0.8981404740161675,0.9603142298191248
0.1276405798514956,0.0172714270733473,0.9999948067640536,7.666490078640637,0.9017691694319422,0.9551023964226172
0.1297330483736513,0.0171944190560364,0.9999946088365818,7.6401626620909875,0.905268581717531,0.9498853653866288
0.131825516895807,0.0171172822905827,0.9999943850246956,7.611121606231438,0.90864331597309,0.9446626727041776
0.1339179854179626,0.0170400094483486,0.9999941300913636,7.57935729173851,0.9118978130886182,0.9394338477560996
0.1360104539401183,0.0169625930520972,0.9999938373176108,7.544859198956722,0.915036355555231,0.9341984127785294
0.138102922462274,0.0168850254662415,0.9999934979340408,7.50761589265626,0.9180630730555228,0.9289558823058276
0.1401953909844296,0.0168072988865152,0.999993100269348,7.467615004811428,0.9209819478345176,0.923705762587079
0.1422878595065853,0.0167294053290209,0.9999926284365512,7.424843215343231,0.9237968198489326,0.9184475509741276
0.144380328028741,0.0166513366186068,0.999992060234962,7.379286230754043,0.9265113916861946,0.9131807352788712
0.1464727965508966,0.0165730843765155,0.9999913636612924,7.3309287605659055,0.9291292332334612,0.9079047930973616
0.1485652650730523,0.0164946400072447,0.9999904908205048,7.279754491454683,0.931653786056008,0.9026191910979834
0.150657733595208,0.0164159946845501,0.9999893666546906,7.225746058947724,0.934088367402702,0.8973233842707558
0.1527502021173636,0.0163371393365152,0.9999878664946076,7.168885016517258,0.9364361736672262,0.8920168151345097
0.1548426706395193,0.0162580646296023,0.999985766941458,7.109151801841121,0.9387002829262504,0.8866989128984075
0.156935139161675,0.0161787609515885,0.9999826239864544,7.046525699879768,0.9408836556372936,0.8813690925739869
0.1590276076838306,0.0160992183932782,0.9999774113893448,6.980984802130502,0.942989130969626,0.8760267540336814
0.1611200762059863,0.016019426728865,0.9999671008069364,6.9125059607357615,0.945019410382791,0.8706712810118739
0.163212544728142,0.0159393753948584,0.999937130654734,6.841064737306296,0.9469769912059572,0.8653020400463284
0.1653050132502976,0.0158591084485876,0.1194697239385643,6.769768602757568,0.9488637630281548,0.8599183793735049
0.1673974817724533,0.0157782045886407,1.9723997298154603e-05,6.672128743761125,0.8829680431108723,0.854523463345691
0.169489950294609,0.0156969497185444,7.903339125980334e-06,6.560685435425748,0.8128174619087792,0.8491222455450494
0.1715824188167646,0.0156153890713972,4.194880534723785e-06,6.436315083945579,0.7482394951437614,0.8437171844700093
0.1736748873389203,0.015533504156732,2.4951515219526733e-06,6.296313271977691,0.6887920359741375,0.8383108675576461
0.175767355861076,0.0154512764591154,1.5791106768216696e-06,6.137458179561349,0.6340676185898142,0.8329067775100496
0.1778598243832316,0.015368689930017,1.0397885829971529e-06,5.9560586013386,0.5836910535314553,0.8275095257868318
0.1799522929053873,0.0152857358462771,7.044424577548356e-07,5.74812306720492,0.537316928289261,0.822125138645053
0.182044761427543,0.0152024213981467,4.881628053540485e-07,5.509712653891208,0.4946272600955794,0.8167614056473012
0.1841372299496986,0.0151187836405041,3.44982571471533e-07,5.237534166233088,0.4553293235751317,0.8114283025957937
0.1862296984718543,0.0150349103078238,2.482935012794556e-07,4.929787765918807,0.4191536471068098,0.8061385038085712
0.18832216699401,0.0149509680468508,1.819369688075337e-07,4.587185497602208,0.3858521668211669,0.8009080027106571
0.1904146355161656,0.0148672365753758,1.357501117755163e-07,4.213909963601333,0.3551965265573369,0.7957568648125903
0.1925071040383213,0.0147841445083242,1.031722546870778e-07,3.818145924874178,0.3269765125366924,0.7907101444504754
0.194599572560477,0.0147023008934103,7.988340359050037e-08,3.411815643965867,0.3009986122135162,0.785799019130945
0.1966920410826326,0.0146225195678711,6.299376719884067e-08,3.009399342988709,0.2770846875186638,0.7810623042716289
0.1987845096047883,0.0145458455745129,5.054420559379311e-08,2.626143589676236,0.2550707534513229,0.7765489643295732
0.200876978126944,0.0144736109992716,4.1194933145046254e-08,2.2760429323754936,0.2348058536735333,0.7723235181637843
0.2029694466490996,0.0144075419609774,3.4039843481998406e-08,1.9691981229614288,0.2161510254154324,0.7684776574564841
0.2050619151712553,0.0143498401088483,2.8495778911473425e-08,1.7080120084437762,0.1989783466053522,0.7651458581984915
0.207154383693411,0.0143029294056486,2.4191986179952075e-08,1.4857792652817272,0.1831700586978543,0.7624970926367366
0.2092468522155666,0.0142789388920481,1.181792130444034e-07,1.5675307221640538,0.1686177591854195,0.7606567885311706
0.2097699693461056,0.0142758293279712,1.1555362608558767e-07,1.483409095347255,0.1651640611088267,0.7606567885311675
0.2102930864766445,0.0142727839922818,1.1298182832134209e-07,1.4032704238783704,0.1617811072835924,0.7606567966135482
0.2108162036071834,0.0142698044477251,1.1046271196487425e-07,1.3270161131336378,0.1584674486111011,0.7606568060300621
0.2113393207377223,0.0142668915702627,1.0799519840512133e-07,1.254526446905615,0.1552216656755284,0.7606568171998036
0.2118624378682613,0.0142640460563431,1.0557823142782101e-07,1.1856780846056043,0.1520423681358292,0.7606568307698337
0.2123855549988002,0.0142612684720825,1.0321077707578886e-07,1.1203458821362673,0.1489281941301808,0.7606568478169674
0.2129086721293391,0.014258559385323,1.0089182409336354e-07,1.0584062620242771,0.1458778096926256,0.7606568703360969
0.2134317892598781,0.014255919949803,9.862038702512284e-08,0.9997496673226944,0.1428899081816628,0.7606569026961061
0.213954906390417,0.014253359163165,9.639554054794385e-08,0.9444315094917118,0.1399632097205441,0.7606569578605319
0.2144780235209559,0.0142514555212562,9.421869285801461e-08,0.9042903478671906,0.1370964606490357,0.7606571257663844
0.2150011406514949,0.0142503618500249,9.209341698310184e-08,0.8800081032375824,0.134288432986457,0.7606625736769593
0.2155242577820338,0.0142496058393544,9.002114007269644e-08,0.8594225196926383,0.1315379239057131,0.7606797220437135
0.2160473749125727,0.0142492395547951,8.800182171803239e-08,0.8427984534220089,0.1288437552180149,0.7607108129505171
0.2165704920431116,0.0142493608910168,8.603704922849518e-08,0.8309021677377189,0.1262047728681663,0.7607595267809312
0.2170936091736506,0.0142501393002964,8.413188137673592e-08,0.8250531569803531,0.1236198464402541,0.7608325532186117
0.2176167263041895,0.0142518731616335,8.230025613274903e-08,0.827158735531814,0.1210878686735002,0.7609434775832583
0.2181398434347284,0.0142549964249493,8.057953670106104e-08,0.8364734201332351,0.1186077549881423,0.7611245032049629
0.2186629605652674,0.0142601011830309,7.903369111116783e-08,0.8408763701943182,0.1161784430213238,0.7614573417336272
0.2191860776958063,0.014268710175026,7.770627637162663e-08,0.834950965319439,0.113798892172556,0.7620640139814039
0.2197091948263452,0.0142819345052444,7.659285514671221e-08,0.8246789261153255,0.111468083157527,0.7630000726752877
0.2202323119568842,0.0142999864519322,7.566857038930783e-08,0.8135991961634615,0.1091850175704865,0.7642680450194468
0.2207554290874231,0.014322770874254,7.490829863123335e-08,0.8030296810955024,0.1069487174561577,0.7658569344932157
0.221278546217962,0.0143501116404827,7.42906953236454e-08,0.7934331724130727,0.1047582248908324,0.7677530949680005
0.221801663348501,0.0143818150444039,7.379830576021648e-08,0.7849417127506434,0.1026126015721288,0.7699428080700446
0.2223247804790399,0.0144176894050939,7.341699585022807e-08,0.7775513351763063,0.1005109284171549,0.7724129685803272
0.2228478976095788,0.0144575515650075,7.313534965054463e-08,0.77120103000274,0.0984523051688914,0.775151260691867
0.2233710147401177,0.0145012288887759,7.294415767091499e-08,0.7658073994101814,0.0964358500106253,0.7781461749468872
0.2238941318706567,0.0145485595562386,7.283600618058328e-08,0.7612806879163748,0.0944606991882701,0.7813869713306054
0.2244172490011956,0.0145993921774846,7.280495324773021e-08,0.7575323603347521,0.0925260066404147,0.7848636248817691
0.2249403661317345,0.0146535851455118,7.284627434895967e-08,0.7544786152357873,0.0906309436359426,0.7885667675332453
0.2254634832622735,0.0147110059059581,7.295626262410461e-08,0.7520418650701292,0.0887746984190702,0.7924876315822131
0.2259866003928124,0.0147715302242051,7.313207188042104e-08,0.7501511774836741,0.0869564758616498,0.7966179968667987
0.2265097175233513,0.0148350414857153,7.337159315205641e-08,0.7487421863853769,0.085175497122594,0.8009501423179141
0.2270328346538903,0.0149014300445522,7.367335778744776e-08,0.7477567411794754,0.0834309993142719,0.8054768019400067
0.2275559517844292,0.0149705926248991,7.40364617113072e-08,0.7471424386811624,0.0817222351757373,0.810191125007916
0.2280790689149681,0.015042431775434,7.446050678530386e-08,0.746852116077239,0.0800484727526492,0.8150866401604862
0.228602186045507,0.0151168553740379,7.494555616547788e-08,0.7468433470165385,0.078408995083747,0.8201572230402199
0.229125303176046,0.0151937761792681,7.549210130090482e-08,0.7470779626470587,0.0768030998937471,0.8253970671323744
0.2296484203065849,0.0152731114246641,7.610103879585616e-08,0.74752160797416,0.0752300992925296,0.8308006574771185
0.2301715374371238,0.0153547824519546,7.67736558109179e-08,0.7481433374497846,0.0736893194804857,0.8363627469551066
0.2306946545676628,0.0154387143794094,7.75116230404471e-08,0.7489152500956877,0.0721801004599013,0.8420783348752733
0.2312177716982017,0.0155248358018462,7.831699459940734e-08,0.749812162516531,0.0707017957522512,0.8479426476214504
0.2317408888287406,0.015613078519096,7.919221440117671e-08,0.7508113171806048,0.0692537721212855,0.8539511211404054
0.2322640059592796,0.0157033772900306,8.014012882432826e-08,0.7518921229328928,0.067835409301787,0.8600993850777033
0.2327871230898185,0.0157956696095419,8.116400566272205e-08,0.7530359246168705,0.0664460997338856,0.8663832483892454
0.2333102402203574,0.015889895506132,8.22675595397015e-08,0.7542257987747936,0.0650852483028154,0.8727986862755169
0.2338333573508964,0.0159859973580185,8.345498415283187e-08,0.7554463725851929,0.0637522720840028,0.8793418283026413
0.2343564744814353,0.0160839197258827,8.473099190909566e-08,0.7566836634296089,0.0624466000933765,0.8860089475894869
0.2348795916119742,0.0161836092005883,8.610086172054882e-08,0.7579249367280626,0.0611676730427934,0.8927964509534455
0.2354027087425131,0.0162850142643786,8.75704959666765e-08,0.7591585799266587,0.0599149431004754,0.8997008699193657
0.2359258258730521,0.0163880851642215,8.914648790296644e-08,0.7603739907519684,0.0586878736563533,0.9067188525065764
0.236448943003591,0.0164927737961121,9.083620111856585e-08,0.7615614780601596,0.0574859390922202,0.9138471557182036
0.2369720601341299,0.0165990335992723,9.264786303534249e-08,0.762712173802742,0.0563086245565938,0.9210826386651564
0.2374951772646689,0.0167068194592977,9.459067491647583e-08,0.7638179548048555,0.0551554257441921,0.9284222562643916
0.2380182943952078,0.0168160876194045,9.667494144085817e-08,0.7648713732072054,0.0540258486799291,0.9358630534574848
0.2385414115257467,0.0169267955990159,9.891222363392713e-08,0.7658655945602089,0.0529194095073374,0.9434021599011986
0.2390645286562857,0.0170389021190088,1.0131551987066417e-07,0.766794342680333,0.0518356342813273,0.9510367850867728
0.2395876457868246,0.0171523670330101,1.0389948084169843e-07,0.7676518504854061,0.0507740587651961,0.9587642138491316
0.2401107629173635,0.0172671512641967,1.0668066587843815e-07,0.7684328161196757,0.0497342282317978,0.9665818022311587
0.2406338800479024,0.0173832167471059,1.096778499759835e-07,0.7691323637617379,0.0487156972687927,0.9744869736717222
0.2411569971784414,0.0175005263740164,1.129123933811925e-07,0.7697460085807983,0.047718029587891,0.9824772154892604
0.2416801143089803,0.0176190439454993,1.1640868893217093e-07,0.7702696253701088,0.0467407978380128,0.990550075635544
0.2422032314395192,0.0177387341243859,1.20194706578281e-07,0.7706994127999872,0.0457835834222826,0.9987031596967084
0.2427263485700582,0.0178595623872157,1.2430265865965748e-07,0.7710317792991223,0.0448459763187856,1.0069341279993271
0.2432494657005971,0.017981494980085,1.2876982180359476e-07,0.7712634092703816,0.0439275749050075,1.015240692376502
0.243772582831136,0.0181044988963028,1.336395625173994e-07,0.7713913685302926,0.0430279857858884,1.0236206142805615
0.244295699961675,0.0182285418415834,1.3896262045131286e-07,0.7714129695180837,0.042146823625419,1.032071702896642
0.2448188170922139,0.0183535922031428,1.4479873039684317e-07,0.7713257527865448,0.0412837109817132,1.0405918131094918
0.2453419342227528,0.0184796190211579,1.5121869277036862e-07,0.7711274721590752,0.0404382781454918,1.0491788436176506
0.2458650513532917,0.0186065919623284,1.583070440956987e-07,0.7708160813095523,0.0396101629819174,1.0578307351852587
0.2463881684838307,0.0187344819331899,1.66165540475676e-07,0.7704019846016535,0.0387990107757233,1.0665454690210303
0.2469112856143696,0.018863286623827,1.7491775807918106e-07,0.7703994858614487,0.038004474079587,1.075321065274838
0.2474344027449085,0.0189929922237852,1.8471525194835085e-07,0.7710912772271526,0.0372262125657024,1.0841555816431834
