Time [s],Lmtc [m],STIM [ ],Fsee [N],Gamma [ ],Lcerel [ ]
0.0,0.020918024698019,0.9999998681065224,1.1383686315604944,0.075769261564819,1.2141353009896574
0.0014833158330199,0.0209397335831814,0.9999998654967074,1.7022936889627496,0.099233511347372,1.2141352560041552
0.0029666316660398,0.0209390866740849,0.9999998516477944,2.379598551083652,0.122102053656923,1.2126114747297112
0.0044499474990597,0.0209178282248943,0.9999998288946502,3.008230965181539,0.1443900119541437,1.20996983005711
0.0059332633320796,0.0208838250497201,0.9999997987146176,3.560487249065814,0.1661121258064749,1.206704530739877
0.0074165791650995,0.0208413098796872,0.9999997620039108,4.024094760529125,0.187282760612589,1.2030671335824217
0.0088998949981194,0.0207929477455106,0.9999997195512342,4.4034447333862925,0.2079159170869863,1.1991972492970877
0.0103832108311393,0.0207405381593339,0.9999996720915028,4.711717411095164,0.2280252405158205,1.1951773471400204
0.0118665266641592,0.0206853089243086,0.999999620311348,4.963571366520622,0.2476240297791036,1.1910583495645346
0.0133498424971791,0.020628101378582,0.9999995648436236,5.171873148089903,0.2667252461439954,1.1868729341196411
0.014833158330199,0.0205694963226809,0.999999506261446,5.346860890356714,0.2853415218347104,1.1826427852231078
0.0163164741632189,0.0205098989560266,0.9999994450748996,5.496321828970568,0.3034851683847017,1.1783827083184255
0.0177997899962388,0.020449595475216,0.999999381730629,5.626063466983707,0.3211681847767178,1.174103054620849
0.0192831058292587,0.0203887906289875,0.9999993166136736,5.7403900233897165,0.3384022653761895,1.169811202111783
0.0207664216622786,0.0203276327158617,0.9999992500507808,5.842495618919247,0.3551988076632519,1.1655124901468847
0.0222497374952985,0.0202662303611244,0.9999991823145504,5.934763647379082,0.371568919768551,1.1612108269241654
0.0237330533283184,0.0202046639050971,0.9999991136279244,6.018986577332136,0.3875234278178364,1.1569090949205652
0.0252163691613383,0.0201429932348231,0.9999990441686908,6.096524798038873,0.4030728830902068,1.152609427983895
0.0266996849943582,0.02008126324438,0.99999897407378,6.16842083681573,0.4182275689947342,1.148313404772083
0.0281830008273781,0.0200195076949045,0.9999989034432176,6.235481569055798,0.4329975078700779,1.144022186386068
0.0296663166603981,0.0199577519805988,0.9999988323436622,6.298337656876472,0.4473924676115704,1.1397366159798283
0.031149632493418,0.0198960151368338,0.9999987608114904,6.357486804516165,0.4614219681301435,1.1354572919635288
0.0326329483264379,0.0198343113162342,0.9999986888554192,6.4133254781482085,0.4750952876473586,1.1311846225452218
0.0341162641594578,0.0197726508864686,0.9999986164586722,6.466172358663294,0.488421468830682,1.126918866874048
0.0355995799924777,0.0197110412556971,0.999998543580696,6.516285829536172,0.5014093247730562,1.1226601664234424
0.0370828958254976,0.0196494874996114,0.9999984701584468,6.563877128131312,0.5140674448207042,1.1184085691700667
0.0385662116585175,0.0195879928422937,0.9999983961072516,6.609120319068267,0.5264042002530135,1.114164048390049
0.0400495274915374,0.0195265590282141,0.9999983213212592,6.652159919743664,0.538427749818238,1.1099265173884647
0.0415328433245573,0.0194651866123365,0.9999982456734742,6.69311677717714,0.5501460451286762,1.105695841124594
0.0430161591575772,0.0194038751880317,0.9999981690153732,6.732092632007475,0.5615668359188742,1.1014718454451538
0.0444994749905971,0.0193426235673311,0.9999980911760828,6.769173689129715,0.5726976751703279,1.0972543244580943
0.045982790823617,0.0192814299243477,0.9999980119610916,6.804433431001277,0.5835459241060541,1.093043046449231
0.0474661066566369,0.0192202919100046,0.9999979311504552,6.837934849318481,0.5941187570583332,1.088837758648303
0.0489494224896568,0.0191592067442414,0.9999978484964348,6.869732226833111,0.6044231662128206,1.0846381910801746
0.0504327383226767,0.0190981712904181,0.9999977637204874,6.899872568848376,0.614465966232157,1.080444059683816
0.0519160541556966,0.0190371821155506,0.9999976765095075,6.928396760114608,0.6242537987621182,1.0762550688416352
0.0533993699887165,0.0189762355391987,0.9999975865111828,6.95534050511647,0.6337931368232677,1.072070913431216
0.0548826858217364,0.0189153276732094,0.999997493328286,6.9807350964560575,0.6430902890909967,1.0678912804880984
0.0563660016547563,0.0188544543039431,0.9999973965116796,7.004599343628271,0.6521514040667588,1.0637158505501267
0.0578493174877762,0.0187936089947632,0.999997295551734,7.026828315237261,0.6609824741432274,1.0595442987397854
0.0593326333207961,0.018732786681477,0.9999971898677829,7.047400736595905,0.6695893395660303,1.055376295629885
0.060815949153816,0.0186719829321212,0.9999970787951056,7.06633597804329,0.6779776922946358,1.051211507929236
0.0622992649868359,0.0186111932150133,0.9999969615687876,7.083651184588079,0.6861530797648894,1.0470495990180322
0.0637825808198558,0.0185504129099021,0.9999968373035732,7.099361528254831,0.6941209085556178,1.0428902293571292
0.0652658966528757,0.0184896373167518,0.999996704968539,7.113480420783061,0.7018864479616319,1.0387330567909698
0.0667492124858956,0.0184288616625356,0.9999965633549962,7.126019693505798,0.7094548334753819,1.0345777367603373
0.0682325283189155,0.0183680811063434,0.9999964110354358,7.136989749930523,0.7168310701793967,1.030423922438188
0.0697158441519354,0.0183072907430523,0.9999962463104825,7.146399695510032,0.7240200360515634,1.0262712647994825
0.0711991599849553,0.018246485605765,0.9999960671395872,7.154257448264272,0.7310264851851402,1.0221194126339586
0.0726824758179752,0.0181856606671824,0.9999958710493508,7.16056983325182,0.7378550509252606,1.017968012509211
0.0741657916509951,0.0181248108400493,0.9999956550105886,7.165342663356098,0.7445102489234856,1.0138167086901122
0.075649107484015,0.0180639309767842,0.9999954152709832,7.168580808419688,0.7509964801116806,1.0096651430195052
0.0771324233170349,0.0180030158683856,0.9999951471234066,7.170288254409405,0.7573180335961481,1.005512954764174
0.0786157391500548,0.017942060380488,0.999994844579447,7.170476236838863,0.7634790894723967,1.001359780429319
0.0800990549830747,0.0178810597431681,0.9999944999084784,7.169174380663447,0.7694837215601702,0.997205260553237
0.0815823708160946,0.0178200065717858,0.9999941029611228,7.166177171464449,0.7753359000573271,0.9930491312616384
0.0830656866491145,0.0177588974915747,0.9999936401182294,7.161466214213645,0.781039494109178,0.988891185243932
0.0845490024821344,0.0176977294122763,0.9999930926574206,7.155041927986321,0.7865982742859031,0.9847312134370588
0.0860323183151543,0.0176364991834681,0.999992434110724,7.146904199705759,0.7920159149556071,0.980569004017544
0.0875156341481742,0.017575203594287,0.9999916257910612,7.137052404212147,0.7972959965300419,0.97640434236567
0.0889989499811941,0.0175138393728579,0.9999906088136848,7.125485421257054,0.8024420075397473,0.9722370110155028
0.090482265814214,0.017452403185447,0.9999892889273676,7.112201649753932,0.8074573464539463,0.9680667895916748
0.091965581647234,0.0173908916353534,0.9999875052593812,7.097199019535694,0.8123453230691405,0.963893454733674
0.0934488974802539,0.0173293012615518,0.9999849587990792,7.08047500076714,0.8171091590689629,0.9597167800082828
0.0949322133132738,0.0172676285370922,0.999981023571366,7.062026610977399,0.8217519867541774,0.955536535810732
0.0964155291462937,0.0172058698672564,0.9999741315348846,7.041850419260443,0.8262768430110774,0.9513524892551746
0.0978988449793136,0.0171440215874613,0.9999589312813616,7.019942546280629,0.8306866478170335,0.9471644040555354
0.0993821608123335,0.0170820799611169,0.9998975307263422,6.996298669146381,0.8349841111578792,0.9429720404003602
0.1008654766453534,0.0170200869818435,7.460195494352283e-05,6.973563363653392,0.839170912228846,0.9387751548541604
0.1023487924783733,0.0169576443848657,1.6739358924429437e-05,6.926985597998982,0.7913460370702785,0.9345758316407388
0.1038321083113932,0.0168950937940688,8.195759051126922e-06,6.874247962602762,0.7462437083413241,0.9303766414104064
0.1053154241444131,0.0168324271079951,4.881748310550629e-06,6.814460218517862,0.7037115617497567,0.9261781792631584
0.106798739977433,0.016769635687475,3.1840715493021245e-06,6.746582413410476,0.6636034043041076,0.9219812158290824
0.1082820558104529,0.0167067105095752,2.188190083971201e-06,6.669414658364087,0.6257811695425956,0.9177867327361448
0.1097653716434728,0.0166436424531097,1.5557119783136413e-06,6.581592548102936,0.5901146081659308,0.913595964555974
0.1112486874764927,0.0165804228062552,1.1328200935854155e-06,6.481593219769659,0.5564808753253622,0.9094104484093596
0.1127320033095126,0.0165170441003134,8.398215321882315e-07,6.3677576487496825,0.5247641191158516,0.9052320824626988
0.1142153191425325,0.0164535014030101,6.315166654908517e-07,6.238335928741996,0.4948550862284273,0.9010631946949323
0.1156986349755524,0.0163897942330931,4.805243241081833e-07,6.0915628970823406,0.4666507478201205,0.896906623475979
0.1171819508085723,0.0163259292765799,3.6941462527311843e-07,5.925770841107658,0.440053945757567,0.8927658116645553
0.1186652666415922,0.0162619240807407,2.866606400292445e-07,5.739543255275444,0.4149730585750418,0.8886449160956996
0.1201485824746121,0.0161978118577194,2.244080499490986e-07,5.531907783903754,0.391321686240938,0.8845489344664506
0.121631898307632,0.0161336474282067,1.7717683023326757e-07,5.302557060260086,0.3690183527642894,0.8804838517072792
0.1231152141406519,0.0160695141671904,1.4107048611866558e-07,5.052073720348043,0.3479862256776468,0.8764568078975116
0.1245985299736718,0.0160055315894697,1.1327592160604444e-07,4.782122879627252,0.3281528514633401,0.8724762896121956
0.1260818458066917,0.0159418629791507,9.17369382397942e-08,4.495566492887773,0.309449906030979,0.8685523463978242
0.1275651616397116,0.0158787223205455,7.493528217117958e-08,4.196455437068668,0.2918129593982209,0.8646968346082665
0.1290484774727315,0.0158163798792845,6.17403980296316e-08,3.889872112638732,0.275181253771403,0.8609236947672037
0.1305317933057515,0.0157551663133366,5.1304262893916557e-08,3.58162910552044,0.2594974942662084,0.8572492835791999
0.1320151091387714,0.0156954763630763,4.29865575625343e-08,3.277868171694165,0.244707651550502,0.8536928247929774
0.1334984249717913,0.0156377749580143,3.630092825429564e-08,2.984625050112626,0.2307607757315432,0.850277139735233
0.1349817408048112,0.0155826101517179,3.087670603407056e-08,2.707399199974593,0.2176088208478886,0.8470299676593669
0.1364650566378311,0.0155306359438325,2.6432659168106215e-08,2.4506904732279176,0.2052064793624394,0.8439862426435172
0.137948372470851,0.0154826384107035,2.275974480630005e-08,2.217419909440712,0.1935110260872868,0.8411911719962651
0.1394316883038709,0.0154395354351573,1.9707962954969315e-08,2.008315435592796,0.1824821710032926,0.8387020908798383
0.1409150041368909,0.0154022914948472,1.717042607625071e-08,1.8217621468457827,0.1720819204676705,0.8365840365336598
0.1423983199699108,0.0153716963239889,1.5061823315320415e-08,1.6547398912475009,0.1622744463313234,0.8348936889654595
0.1438816358029307,0.0153480595220821,1.3299724242802972e-08,1.504498290519233,0.1530259625147906,0.833655197454295
0.1453649516359506,0.0153310234390635,1.1800751736527124e-08,1.3695128929087326,0.1443046086178513,0.8328448403126992
0.1468482674689705,0.0153196687135885,1.0490097622034548e-08,1.2490783483620032,0.1360803401627424,0.8323986812336641
0.1483315833019904,0.0153119279818134,7.7500144823441e-08,1.121392252545602,0.1283248250936546,0.8322362162581248
0.1486664492871524,0.0153105794805337,7.634941134935736e-08,1.090329601125929,0.1266360629163488,0.8322362162581237
0.1490013152723143,0.0153097398761378,7.521640629229645e-08,1.0704359475835137,0.1249695266780069,0.8322385420176147
0.1493361812574762,0.0153090646440018,7.410178814328176e-08,1.0527712835074066,0.1233249238612383,0.8322458620647384
0.1496710472426381,0.015308543028382,7.30054209176704e-08,1.0368401193908368,0.1217019657985093,0.8322588002290978
0.1500059132278,0.0153081909839679,7.19272580741293e-08,1.0227468648744007,0.1201003676214645,0.8322780103227408
0.1503407792129619,0.015308031850476,7.086745239204833e-08,1.0106776043423047,0.1185198482109263,0.8323043973264165
0.1506756451981238,0.0153080985875836,6.982645622048162e-08,1.0009034939062007,0.1169601301475544,0.8323392566825245
0.1510105111832858,0.0153084386263732,6.880520419525189e-08,0.9938129457409866,0.1154209396631559,0.8323845065340563
0.1513453771684477,0.0153091221048596,6.780547711847864e-08,0.9899562066822708,0.1139020065926386,0.8324431170255276
0.1516802431536096,0.0153102548195927,6.683067919507576e-08,0.9900590158350332,0.1124030643266014,0.8325199685962049
0.1520151091387715,0.0153119925033227,6.588754307504612e-08,0.9947545086478162,0.1109238497645587,0.8326236986740668
0.1523499751239334,0.0153145321631401,6.49891800876366e-08,1.00310114731368,0.109464103268803,0.8327707539252379
0.1526848411090953,0.015318100630812,6.415594339168037e-08,1.0101017134984822,0.1080235686189153,0.8329921749485169
0.1530197070942572,0.0153231291456144,6.340687072171574e-08,1.0109700633434784,0.106601992966885,0.8333320858171944
0.1533545730794192,0.0153301564497377,6.274975859503584e-08,1.0066200799030012,0.1051991267927077,0.8338243332894321
0.1536894390645811,0.0153394887610696,6.218241286410366e-08,0.9995682711752156,0.1038147238604374,0.8344820517814162
0.154024305049743,0.0153512259863651,6.169872989920043e-08,0.9914280590119212,0.1024485411748332,0.835307095648197
0.1543591710349049,0.0153653714376799,6.129194939988395e-08,0.9830407091734495,0.1011003389386564,0.8362970938742045
0.1546940370200668,0.0153818881320752,6.095573770842264e-08,0.9748340346881398,0.099769880510573,0.8374481902351336
0.1550289030052287,0.0154007224700073,6.068447596872031e-08,0.9670244587441243,0.0984569323636239,0.8387560426089805
0.1553637689903906,0.0154218144029607,6.047328981159492e-08,0.9597173404148844,0.0971612640442457,0.8402162113993017
0.1556986349755525,0.0154451020528947,6.031799805983907e-08,0.9529575526887768,0.0958826481318314,0.8418243207135224
0.1560335009607145,0.0154705239130828,6.021504045204262e-08,0.9467560888485806,0.0946208601988226,0.8435761272544422
0.1563683669458764,0.0154980199219588,6.016140521483865e-08,0.9411046855776586,0.0933756787713257,0.8454675486527475
0.1567032329310383,0.0155275319800377,6.015456343915216e-08,0.935984172757985,0.0921468852902456,0.847494672842098
0.1570380989162002,0.0155590041783187,6.01924120730853e-08,0.9313693901373604,0.0909342640729303,0.8496537581988393
0.1573729649013621,0.0155923828719637,6.027322542639429e-08,0.9272321495053945,0.0897376022753193,0.8519412291037209
0.157707830886524,0.015627616669289,6.03956144174289e-08,0.9235430457516952,0.0885566898545898,0.8543536692722468
0.1580426968716859,0.0156646563742507,6.055849262896019e-08,0.9202725703572788,0.0873913195322933,0.8568878140829637
0.1583775628568479,0.0157034549039459,6.076104827127593e-08,0.917391792184614,0.0862412867579778,0.8595405425654679
0.1587124288420098,0.0157439671935736,6.100272125340354e-08,0.9148727648795694,0.0851063896732881,0.8623088694093755
0.1590472948271717,0.0157861500961821,6.12831846837027e-08,0.9126887591922472,0.0839864290765376,0.8651899371908535
0.1593821608123336,0.0158299622815554,6.160233023806637e-08,0.9108143822238924,0.0828812083877476,0.8681810089204997
0.1597170267974955,0.015875364136822,6.196025693994883e-08,0.909225623443536,0.0817905336141445,0.8712794609630489
0.1600518927826574,0.0159223176702899,6.235726298970726e-08,0.9078998534724824,0.0807142133161134,0.8744827763482704
0.1603867587678193,0.0159707864193478,6.279384036210313e-08,0.906815792809924,0.0796520585735971,0.8777885384742693
0.1607216247529813,0.0160207353628575,6.327067196201155e-08,0.9059534619473744,0.0786038829529394,0.8811944251938628
0.1610564907381432,0.0160721308381991,6.378863119144476e-08,0.9052941205476966,0.0775695024741634,0.8846982032687697
0.1613913567233051,0.0161249404629688,6.434878383791266e-08,0.90482020084647,0.0765487355786813,0.888297723173236
0.161726222708467,0.0161791330612275,6.495239224680212e-08,0.9045152387336934,0.0755414030974283,0.8919909142273014
0.1620610886936289,0.0162346785941351,6.560092179062481e-08,0.9043638048161808,0.0745473282194169,0.89577578003958
0.1623959546787908,0.0162915480947729,6.629604969734125e-08,0.9043514369670989,0.0735663364607044,0.8996503942397126
0.1627308206639527,0.0163497136069366,6.703967635016044e-08,0.9044645753220436,0.0725982556337697,0.9036128964813336
0.1630656866491147,0.0164091481276761,6.783393922391051e-08,0.9046905003034936,0.071642915817292,0.9076614886972914
0.1634005526342766,0.0164698255533587,6.868122968005254e-08,0.9050172739948336,0.0707001493263291,0.911794431589868
0.1637354186194385,0.016531720629038,6.958421290561639e-08,0.90543368500626,0.069769790682887,0.9160100413397946
0.1640702846046004,0.016594808900917,7.054585135301133e-08,0.9059291968530856,0.068851676586878,0.9203066865189118
0.1644051505897623,0.0166590666717062,7.156943212041472e-08,0.9064938997852766,0.0679456458874608,0.924682785192352
0.1647400165749242,0.0167244709586848,7.265859880942933e-08,0.9071184659538696,0.0670515395547583,0.9291368021971104
0.1650748825600861,0.016790999454289,7.38173885117719e-08,0.9077941077665392,0.0661692006519482,0.9336672465848016
0.1654097485452481,0.0168586304890552,7.505027471470086e-08,0.9085125392653516,0.0652984743077214,0.9382726692172882
0.16574461453041,0.0169273429967653,7.636221708172576e-08,0.9092659403502648,0.0644392076891029,0.942951660504686
0.1660794805155719,0.0169971164816437,7.775871926848787e-08,0.9100469236694276,0.0635912499746322,0.9477028482760266
0.1664143465007338,0.017067930987471,7.924589618332494e-08,0.910848503999244,0.062754452327896,0.952524895773574
0.1667492124858957,0.0171397670684865,8.083055241050875e-08,0.9116640699423912,0.0619286678714113,0.9574164997624524
0.1670840784710576,0.0172126057619611,8.252027389782505e-08,0.9124873577791404,0.0611137516608526,0.962376388747861
0.1674189444562195,0.0172864285623296,8.432353549043356e-08,0.9133124273156806,0.0603095606596201,0.967403321292722
0.1677538104413815,0.0173612173967807,8.624982749800131e-08,0.914133639582118,0.059515953713743,0.9724960844291332
0.1680886764265434,0.0174369546022099,8.830980524940637e-08,0.9149456362421786,0.058732791527116,0.9776534921574856
0.1684235424117053,0.0175136229034455,9.051546656899202e-08,0.9157433205857876,0.0579599366370628,0.9828743840275485
0.1687584083968672,0.0175912053926672,9.288036336810907e-08,0.9165218399847614,0.057197253390224,0.9881576237962572
0.1690932743820291,0.01766968550994,9.541985517764129e-08,0.917276569700562,0.0564446079187647,0.993502098157304
0.169428140367191,0.0177490470245654,9.815141453087608e-08,0.918003093160338,0.0557018681168992,0.9989067155379948
0.1697630063523529,0.0178292740141235,1.0109499633245342e-07,0.9186971293154732,0.054968903617728,1.0043704049105275
0.1700978723375149,0.0179103508458803,1.0427348846260665e-07,0.91935456772633,0.0542455857703849,1.0098921144146886
0.1704327383226768,0.0179922621687594,1.0771326623314009e-07,0.9199715589242792,0.0535317876174912,1.0154708105213954
0.1707676043078387,0.0180749928967411,1.1144487712011153e-07,0.9205444193957004,0.0528273838729124,1.0211054772138122
0.1711024702930006,0.0181585281946829,1.1550389361542617e-07,0.921069619273604,0.052132250899819,1.0267951150648031
0.1714373362781625,0.0182428534649444,1.1993198466336853e-07,0.92154377316959,0.0514462666890448,1.0325387403590136
0.1717722022633244,0.0183279543346855,1.2477827390362445e-07,0.921963631724414,0.0507693108377463,1.0383353842583962
0.1721070682484863,0.0184138166437972,1.3010107841681014e-07,0.922326073824154,0.050101264528359,1.0441840920086818
0.1724419342336483,0.0185004264334293,1.3597015836913644e-07,0.9226280994332628,0.0494420105078551,1.0500839221844624
0.1727768002188102,0.0185877699350809,1.4246966165776705e-07,0.9228668229995944,0.0487914330673026,1.0560339459707175
