Time [s],Lmtc [m],STIM [ ],Fsee [N],Gamma [ ],Lcerel [ ]
0.0,0.0211104814195473,0.9999997874860934,1.215514694345892,0.0636274900079343,1.3489792684613755
0.0025146227682063,0.021145626806129,0.9999997381809904,1.9730658955637823,0.1186152203421731,1.3489792684486197
0.0050292455364127,0.0210656140087868,0.9999995724355406,3.0550685073511032,0.170373836352338,1.3399821181666032
0.0075438683046191,0.0209663969291777,0.9999993513575968,3.75108066104468,0.2190929584121009,1.33089087779154
0.0100584910728255,0.0208603873786251,0.9999990966688164,4.221369835124065,0.2649510751755677,1.3219102085695238
0.0125731138410319,0.0207528208607375,0.9999988267280568,4.58020753424851,0.3081161949658978,1.3130944217224172
0.0150877366092383,0.0206456703647053,0.9999985551543752,4.880139632257821,0.3487464610270602,1.3044545405269776
0.0176023593774447,0.020539674412826,0.9999982913288364,5.145130563945808,0.386990730564551,1.295986586924675
0.0201169821456511,0.0204350894116673,0.999998041304355,5.386902033337782,0.4229891198118633,1.2876812150936483
0.0226316049138575,0.0203319723215958,0.9999978086814796,5.611679834118099,0.4568735171417871,1.2795274409748645
0.0251462276820639,0.020230294560627,0.9999975953241932,5.823044029891832,0.4887680660970783,1.2715141742806133
0.0276608504502703,0.0201299911604297,0.999997401903382,6.023208704059542,0.518789620097563,1.263630846821757
0.0301754732184767,0.0200309831310946,0.9999972282931956,6.213635480237976,0.5470481704768374,1.2558676461314724
0.032690095986683,0.0199331879697493,0.999997073853094,6.395346331837223,0.5736472494061258,1.2482155717090069
0.0352047187548894,0.0198365246282937,0.9999969376251958,6.569092239932061,0.5986843091733088,1.240666412063114
0.0377193415230958,0.0197409157831703,0.9999968184705044,6.735448826800705,0.6222510792006815,1.2332126885450383
0.0402339642913022,0.0196462887555654,0.9999967151617272,6.894873108022649,0.6444339021051182,1.2258475878815265
0.0427485870595086,0.0195525757491179,0.9999966264455608,7.047738593303952,0.6653140500288207,1.2185648937821227
0.045263209827715,0.0194597137460456,0.9999965510836434,7.194357832445704,0.6849680223974488,1.2113589223289054
0.0477778325959214,0.0193676442399229,0.999996487878684,7.334997408206512,0.7034678261950392,1.2042244630413697
0.0502924553641278,0.0192763128994384,0.9999964356903464,7.469888229525517,0.7208812397815372,1.1971567261167944
0.0528070781323342,0.0191856692130166,0.9999963934440964,7.599232808499022,0.7372720612187811,1.1901512956778015
0.0553217009005405,0.0190956661401725,0.9999963601352598,7.723210545181605,0.7527003420142571,1.1832040885615658
0.0578363236687469,0.0190062597823323,0.9999963348298618,7.84198166105239,0.7672226071386753,1.1763113180777651
0.0603509464369533,0.0189174090786429,0.99999631666334,7.955690192800867,0.7808920621232323,1.1694694621501347
0.0628655692051597,0.0188290755283536,0.999996304837898,8.064466317377985,0.7937587879951756,1.1626752352894338
0.0653801919733661,0.0187412229392688,0.9999962986190242,8.168428190741425,0.8058699247657726,1.1559255638976196
0.0678948147415725,0.0186538172007077,0.9999962973315436,8.2676834257642,0.8172698441428887,1.1492175644603726
0.0704094375097789,0.0185668260789447,0.9999963003554456,8.362330297336559,0.8280003121009247,1.1425485242412088
0.0729240602779853,0.0184802190329543,0.9999963071216612,8.452458737589518,0.8381006419037115,1.1359158841420116
0.0754386830461917,0.018393967048321,0.9999963171078916,8.538151167019397,0.8476078381410114,1.1293172234408075
0.0779533058143981,0.0183080424872941,0.999996329834564,8.6194831953687,0.8565567323063431,1.122750246157795
0.0804679285826045,0.0182224189531359,0.9999963448609472,8.696524217687093,0.8649801104128669,1.1162127688353496
0.0829825513508109,0.0181370711670825,0.9999963617814548,8.769337924939459,0.8729088331148974,1.1097027095474723
0.0854971741190173,0.0180519748564157,0.9999963802221364,8.837982744110695,0.8803719487751592,1.1032180779795435
0.0880117968872237,0.0179671066523058,0.9999963998373552,8.902512219489266,0.8873967998920528,1.0967569664408334
0.0905264196554301,0.0178824439962332,0.9999964203066392,8.962975344360645,0.8940091232768596,1.0903175416906024
0.0930410424236365,0.0177979621004084,0.999996441331695,9.01926433317637,0.900233144347942,1.083898037474199
0.0955556651918429,0.017713633201793,0.9999964626335556,9.071078156746305,0.906091665887414,1.077496747678803
0.0980702879600493,0.017629436579385,0.9999964839498482,9.118444629385,0.911606151585472,1.071112020029702
0.1005849107282556,0.0175453522436478,0.9999965050321484,9.16140054205106,0.916796804678496,1.0647422502575092
0.103099533496462,0.0174613606191999,0.999996525643398,9.199978764575118,0.921682641969035,1.0583858766748253
0.1056141562646684,0.0173774424852541,0.9999965455553492,9.234208411212116,0.9262815634988688,1.05204137510768
0.1081287790328748,0.0172935789190403,0.9999965645460056,9.264114984199756,0.9306104181304306,1.0457072541328838
0.1106434018010812,0.0172097512417292,0.9999965823970114,9.289720497346837,0.934685065276856,1.0393820505772884
0.1131580245692876,0.0171259409664121,0.9999965988909506,9.311043581329065,0.9385204330068336,1.0330643252390306
0.115672647337494,0.0170421297477226,0.9999966138084976,9.328099572076288,0.9421305727371356,1.0267526587942182
0.1181872701057004,0.0169582993327076,0.9999966269253544,9.340900583382846,0.9455287107132008,1.0204456478553052
0.1207018928739068,0.0168744315125748,0.9999966380089002,9.349455564652574,0.9487272964663832,1.0141419011496158
0.1232165156421132,0.0167905080749557,0.9999966468144562,9.353770344495356,0.9517380484253932,1.0078400357882291
0.1257311384103196,0.0167065113357167,0.9999966530815648,9.353878129365922,0.9545719968490164,1.0015386735967162
0.128245761178526,0.0166224238890609,0.9999966565379425,9.349804223622488,0.9572395242374296,0.9952364726306888
0.1307603839467324,0.0165382227885474,0.9999966569010484,9.341050600888932,0.959750403370623,0.9889324263276674
0.1332750067149387,0.0164538960436832,0.9999966538618004,9.327584574738797,0.9621138331131376,0.9826256912817276
0.1357896294831451,0.0163694320168727,0.9999966470746996,9.309399077570797,0.9643384721152436,0.9763154191754708
0.1383042522513515,0.0162848188736183,0.999996636149448,9.2864848003666,0.9664324705344628,0.970000755371392
0.1408188750195579,0.0162000445616553,0.999996620640718,9.25883017334365,0.968403499893774,0.963680837500468
0.1433334977877643,0.0161150967890084,0.9999966000355138,9.226421340407432,0.9702587811858217,0.957354794013352
0.1458481205559706,0.0160299630008469,0.999996573737373,9.18924212727024,0.9720051113259848,0.9510217426871804
0.148362743324177,0.015944630355005,0.999996541046394,9.147274003055326,0.973648888051079,0.9446807890805842
0.1508773660923834,0.0158590856960175,0.9999965011336808,9.100496035155786,0.9751961333547322,0.9383310249289772
0.1533919888605898,0.0157733155275048,0.9999964530082424,9.048884837065438,0.9766525155450336,0.9319715264715882
0.1559066116287962,0.0156873059827225,0.999996395473559,8.992414508844186,0.9780233700049203,0.925601352701034
0.1584212343970026,0.0156010427930669,0.9999963270697844,8.931056569821093,0.9793137187308796,0.91921954352543
0.1609358571652089,0.0155145112543057,0.9999962459956708,8.864779883074489,0.980528288720858,0.912825117832133
0.1634504799334153,0.0154276961902714,0.9999961500013416,8.793550571158574,0.9816715292777708,0.9064170714411548
0.1659651027016217,0.0153405819137236,0.999996036238318,8.71733192246857,0.9827476282905804,0.8999943749351178
0.1684797254698281,0.0152531521840461,0.9999959010454434,8.63608428755102,0.9837605275504752,0.8935559713512182
0.1709943482380345,0.0151653901614018,0.999995739636236,8.549764964569928,0.9847139371550436,0.88710077371912
0.1735089710062408,0.0150772783569126,0.9999955456302498,8.458328073031836,0.9856113490482188,0.880627662426887
0.1760235937744472,0.0149887985783749,0.99999531032935,8.361724414751176,0.9864560497375758,0.8741354823949931
0.1785382165426536,0.0148999318709437,0.9999950215606837,8.25990132089869,0.9872511322223192,0.8676230400360602
0.18105283931086,0.0148106584521372,0.9999946617500594,8.15280248381696,0.9879995071528682,0.8610890999752289
0.1835674620790664,0.0147209576404109,0.9999942045539972,8.040367772104076,0.9887039132219744,0.8545323815029069
0.1860820848472728,0.0146308077764291,0.9999936086131576,7.922533027251233,0.9893669267478824,0.8479515547279438
0.1885967076154791,0.014540186136018,0.9999928050797752,7.799229839863367,0.9899909703279972,0.8413452363950488
0.1911113303836855,0.0144490688336097,0.9999916702369896,7.670385303170482,0.990578320252176,0.8347119853253266
0.1936259531518919,0.0143574307147746,0.9999899572491604,7.535921741099306,0.9911311118733488,0.8280502974330584
0.1961405759200983,0.0142652452361767,0.9999870923064748,7.395756407474261,0.9916513406561376,0.821358600265236
0.1986551986883047,0.0141724843309568,0.9999813651903848,7.249801151518764,0.9921408511953882,0.8146352470028725
0.201169821456511,0.0140791182571632,0.999964357395612,7.097962043293485,0.9926012793519668,0.8078785098557166
0.2036844442247174,0.0139851427971086,0.6882500206904469,6.94137882821046,0.9930336705987968,0.8010865727856671
0.2061990669929238,0.0138903194826118,1.460215204789217e-05,6.7697372467369,0.9606630124671804,0.7942591930225951
0.2087136897611302,0.0137940090076529,5.5342336300337455e-06,6.552987686158084,0.8586338660273155,0.7874006463259796
0.2112283125293366,0.0136966459469547,2.729521329619822e-06,6.309361958486672,0.7674402446166088,0.7805158808662446
0.2137429352975429,0.0135980343462664,1.5017424310647589e-06,6.031222894466505,0.6859319752514109,0.7736068526683342
0.2162575580657493,0.0134979204459527,8.7893213353831e-07,5.709319433793377,0.6130805467876188,0.7666762841243958
0.2187721808339557,0.0133959907576719,5.368802112062781e-07,5.333574722651684,0.547966582741213,0.7597275438048225
0.2212868036021621,0.0132918886220895,3.395753436731995e-07,4.895063261767837,0.4897683189226018,0.7527642518803359
0.2238014263703685,0.0131852619737133,2.2182984126601665e-07,4.3895334145680645,0.4377512560495146,0.7457894363365362
0.2263160491385749,0.0130758472929311,1.4966584387899415e-07,3.822063232939026,0.3912588988868196,0.738804013898684
0.2288306719067812,0.012963569988428,1.0436521872171497e-07,3.2109829185380043,0.3497044747724736,0.7318043324839747
0.2313452946749876,0.012848612953918,7.521264973167853e-08,2.5881752241279945,0.3125635300225574,0.7247785987999728
0.233859917443194,0.0127314438792562,5.587632518357712e-08,1.9946133438097209,0.2793673118993885,0.7177032544092374
0.2363745402114004,0.0126129944860741,4.247564834970978e-08,1.4734317854815542,0.2496968530946126,0.7105491842066928
0.2388891629796068,0.0124952774001367,3.2628731515846444e-08,1.0561594179876432,0.2231776842925247,0.7033426886408493
0.2414037857478131,0.0123821527313008,2.517558648617848e-08,0.7338036829850223,0.1994751082094501,0.6963491109699739
0.2439184085160195,0.0122794354483228,1.9686605700052405e-08,0.4684343257262787,0.1782899755467262,0.6901461102655879
0.2464330312842259,0.012190669606258,1.5672408907934243e-08,0.2500776283112615,0.1593549095263772,0.6850956756208191
0.2489476540524323,0.0121141234252945,1.257680278540124e-08,0.1000022181132276,0.1424309313339136,0.6809575758605113
0.2514622768206387,0.0121104814195473,1.0683358126745608e-07,0.4831805503942652,0.1273044439711954,0.6773783641050708
0.2519316337512649,0.0121374947315233,1.0518906560513237e-07,0.8599835240743685,0.1246643776479546,0.6773783641027115
0.2524009906818911,0.0121657862108821,1.0438562297030509e-07,0.8532806944259412,0.1220790658880839,0.6795323104440142
0.2528703476125173,0.0121970517283358,1.0369438450875884e-07,0.8477015125068924,0.1195473731072236,0.6819041591656803
0.2533397045431436,0.0122311681009907,1.0310450261691695e-07,0.8431469762890997,0.1170681872577546,0.6844850883948128
0.2538090614737698,0.0122680194948057,1.0260701537317249e-07,0.8395149308226668,0.1146404193555413,0.6872668562001478
0.254278418404396,0.0123074972942512,1.02194503059126e-07,0.8367065988817319,0.1122630030016369,0.6902417575044733
0.2547477753350222,0.0123494997233781,1.018608142709814e-07,0.8346295731504741,0.1099348939139024,0.6934025790311865
0.2552171322656484,0.0123939313706642,1.0160084731699538e-07,0.8331989962410477,0.1076550694683332,0.6967425558858532
0.2556864891962747,0.0124407026901373,1.0141037524938025e-07,0.8323378016477566,0.1054225282498942,0.700255331176572
0.2561558461269009,0.0124897295136255,1.0128590533427436e-07,0.831976473714998,0.1032362896126672,0.7039349191147454
0.2566252030575271,0.0125409325904105,1.0122456578513341e-07,0.832052573241384,0.1010953932491175,0.7077756716067762
0.2570945599881533,0.0125942371611103,1.0122401417885105e-07,0.8325101634460564,0.0989988987682915,0.7117722481569387
0.2575639169187795,0.0126495725677215,1.0128236320911377e-07,0.8332992099975308,0.0969458852827607,0.7159195888247888
0.2580332738494058,0.0127068718992226,1.0139812038317779e-07,0.834374994754867,0.0949354510041308,0.7202128899581052
0.258502630780032,0.0127660716708747,1.0157013900136645e-07,0.8356975635789323,0.0929667128469389,0.724647582426196
0.2589719877106582,0.0128271115347779,1.0179757832488433e-07,0.8372312175621525,0.0910388060407643,0.7292193120943844
0.2594413446412844,0.012889934019038,1.0207987127687413e-07,0.8389440507617911,0.0891508837503835,0.7339239223015018
0.2599107015719106,0.0129544842929076,1.0241669836426564e-07,0.8408075340181128,0.0873021167038023,0.7387574381246086
0.2603800585025368,0.013020709955375,1.0280796677672065e-07,0.8427961425565966,0.0854916928280028,0.7437160522371166
0.2608494154331631,0.013088560844847,1.0325379383110589e-07,0.8448870241461687,0.0837188168922428,0.7487961121871157
0.2613187723637893,0.0131579888677613,1.0375449409847264e-07,0.8470597042188569,0.0819827101587544,0.7539941089416434
0.2617881292944155,0.0132289478441611,1.0431056968539807e-07,0.849295824313323,0.080282610040686,0.7593066665597549
0.2622574862250417,0.0133013933684535,1.0492270325031867e-07,0.8515789103425301,0.0786177697671387,0.7647305328726208
0.2627268431556679,0.0133752826837548,1.055917534239785e-07,0.8538941674180505,0.0769874580551489,0.7702625710625656
0.2631962000862942,0.013450574568391,1.063187523758294e-07,0.8562282982384936,0.0753909587884751,0.7758997520451335
0.2636655570169204,0.0135272292332724,1.0710490532865752e-07,0.8585693423360262,0.0738275707030452,0.7816391475690503
0.2641349139475466,0.013605208229,1.079515918746454e-07,0.8609065337556165,0.0722966070789288,0.7874779239585071
0.2646042708781728,0.0136844743616845,1.088603689896979e-07,0.8632301750064028,0.070797395438697,0.7934133364306231
0.265073627808799,0.0137649916165694,1.0983297568093421e-07,0.8655315253688045,0.0693292772520387,0.7994427239284305
0.2655429847394253,0.0138467250886467,1.1087133923623288e-07,0.8678027018628081,0.0678916076465033,0.8055635044163115
0.2660123416700515,0.0139296409195463,1.1197758307580003e-07,0.8700365913820455,0.0664837551242424,0.8117731705906648
0.2664816986006777,0.014013706240054,1.1315403623496947e-07,0.8722267726761594,0.0651051012846267,0.8180692859637472
0.2669510555313039,0.0140988891176849,1.144032445357232e-07,0.8743674470215379,0.0637550405526156,0.8244494812831947
0.2674204124619301,0.0141851585088017,1.1572798353257639e-07,0.8764533765599565,0.0624329799127608,0.8309114512537922
0.2678897693925564,0.0142724842148207,1.1713127334729045e-07,0.8784798294075159,0.0611383386487274,0.8374529515316297
0.2683591263231826,0.014360836842099,1.1861639553711377e-07,0.8804425307443667,0.0598705480882163,0.8440717959639733
0.2688284832538088,0.0144501877651384,1.201869121737032e-07,0.8823376191907144,0.058629051353179,0.8507658540509927
0.269297840184435,0.0145405090927802,1.2184668734537466e-07,0.8841616078580306,0.0574133031152114,0.8575330486079984
0.2697671971150612,0.0146317736371015,1.235999113347911e-07,0.8859113495375378,0.0562227693560228,0.8643713536090546
0.2702365540456874,0.0147239548847507,1.254511277686295e-07,0.8875840055523322,0.0550569271328722,0.8712787921948175
0.2707059109763137,0.0148170269704901,1.2740526408637825e-07,0.8891770178558188,0.0539152643488704,0.8782534348292106
0.2711752679069399,0.0149109646527356,1.2946766573355706e-07,0.8906880840085847,0.0527972795280467,0.8852933975911067
0.2716446248375661,0.0150057432909057,1.316441345519601e-07,0.8921151347092797,0.0517024815950808,0.8923968405885825
0.2721139817681923,0.0151013388244114,1.3394097191794977e-07,0.8934563135931852,0.0506303896596048,0.8995619664845714
0.2725833386988185,0.0151977277531354,1.3636502727171592e-07,0.8947099590456351,0.0495805328049786,0.90678701912382
0.2730526956294448,0.0152948871192639,1.3892375278861362e-07,0.8958745878069347,0.0485524498814481,0.914070282252076
0.273522052560071,0.0153927944903481,1.4162526507170206e-07,0.8969488801712976,0.0475456893035935,0.9214100783193072
0.2739914094906972,0.0154914279434849,1.4447841489669536e-07,0.8979316666051125,0.0465598088519802,0.9288047673595397
0.2744607664213234,0.0155907660505165,1.4749286622201734e-07,0.8988219156299855,0.0455943754789249,0.936252745940622
0.2749301233519496,0.0156907878641595,1.5067918589409558e-07,0.8996187228336111,0.0446489651182919,0.9437524461778638
0.2753994802825759,0.0157914729049805,1.540489457396527e-07,0.900321300887198,0.0437231624992354,0.9513023348060378
0.2758688372132021,0.0158928011491458,1.5761483905286078e-07,0.9009289704619238,0.0428165609638073,0.9589009123047928
0.2763381941438283,0.0159947530168781,1.6139081386879878e-07,0.9014411519490308,0.0419287622883508,0.9665467120729376
0.2768075510744545,0.016097309361558,1.653922258821785e-07,0.9018573578989412,0.0410593765085996,0.9742382996475104
0.2772769080050807,0.0162004514594184,1.6963601444274316e-07,0.9021771861042616,0.0402080217484091,0.9819742719638792
0.277746264935707,0.016304160999779,1.7414090576300108e-07,0.9024003132599364,0.0393743240520426,0.9897532566534986
0.2782156218663332,0.0164084200755747,1.789276482796001e-07,0.9025264858404302,0.03855791721994,0.9975739113762124
0.2786849787969594,0.0165132111709303,1.8401928477517125e-07,0.9025554641568524,0.0377584426478981,1.005434923145719
0.2791543357275856,0.016618517149431,1.8944146984393978e-07,0.9024870339713944,0.0369755491695914,1.01333500739688
0.2796236926582118,0.0167243212560398,1.952228459394115e-07,0.9023211331734302,0.0362088929023658,1.02127290754823
0.280093049588838,0.0168306071070056,2.013954842310512e-07,0.902057759061284,0.0354581370962382,1.0292473946709166
0.2805624065194643,0.0169373586822394,2.079954049360932e-07,0.9016969588369772,0.034722951986037,1.037257266960424
0.2810317634500905,0.0170445603182787,2.1506319525753853e-07,0.9012388259925244,0.0340030146466203,1.0453013492252567
0.2815011203807167,0.0171521967015244,2.22644746938139e-07,0.9006834969452308,0.0332980088511089,1.053378492394847
0.2819704773113429,0.0172602528617291,2.30792141291238e-07,0.9000311478988977,0.0326076249320757,1.061487573045175
0.2824398342419691,0.0173687141657166,2.395647172383252e-07,0.8992819919103727,0.0319315596456319,1.0696274929407197
0.2829091911725954,0.0174775663113135,2.490303680109854e-07,0.8984362761430994,0.031269516038354,1.0777971785914622
0.2833785481032216,0.0175867953214781,2.592671256697868e-07,0.8974942792913169,0.0306212033169983,1.0859955808237718
0.2838479050338478,0.0176963984503028,2.703651107459944e-07,0.8966339608913179,0.0299863367209495,1.094221674364099
0.284317261964474,0.0178064000483435,2.824289489817826e-07,0.8964689347787159,0.0293646373973558,1.102474457434488
0.2847866188951002,0.0179167907130733,2.955807910378068e-07,0.8970583439657175,0.0287558322789036,1.1107529513590058
0.2852559758257265,0.0180275581420167,3.099641181510373e-07,0.8984101144273147,0.0281596539641896,1.1190562001802378
0.2857253327563527,0.0181386902494137,3.257485830502079e-07,0.9005318340178571,0.027575840600653,1.127383270285095
