Time [s],Lmtc [m],STIM [ ],Fsee [N],Gamma [ ],Lcerel [ ]
0.0,0.0217365390690726,0.9999995774915664,1.7035425408703149,0.0941611357669985,1.3941757710922262
0.004238202520243,0.0216785347736119,0.9999990322738148,3.428240059833183,0.1820009282030318,1.3850571385603276
0.0084764050404861,0.0215564048768416,0.9999982042957714,4.217442954256286,0.2613227811576992,1.3741319012872462
0.0127146075607291,0.0214251684053275,0.9999972696739712,4.720240716244103,0.3329526578096454,1.363248798405943
0.0169528100809722,0.0212948538513598,0.9999963412252708,5.129765368530919,0.3976364441836373,1.352667683736323
0.0211910126012153,0.0211673928216626,0.9999954813357782,5.494914550977205,0.4560477081504877,1.3424146092517908
0.0254292151214584,0.0210430485551554,0.99999471952036,5.8319498396826415,0.508794707279183,1.3324686876158491
0.0296674176417014,0.0209216726167875,0.9999940657221448,6.14784897836662,0.5564267188353872,1.3228002133689922
0.0339056201619445,0.020803018024848,0.9999935189628604,6.44629323553981,0.5994397572451796,1.3133801533379286
0.0381438226821876,0.0206868294811139,0.9999930725914492,6.729556781981046,0.63828173797112,1.3041824856253974
0.0423820252024306,0.0205728700985745,0.9999927173489606,6.9992137806918056,0.6733571411525708,1.2951845030396243
0.0466202277226737,0.0204609278650219,0.9999924431068802,7.256443058513842,0.705031223306728,1.286366531080373
0.0508584302429168,0.0203508153600563,0.9999922398201232,7.502176001775616,0.7336338207865981,1.2777115123795364
0.0550966327631598,0.0202423673569182,0.9999920980216775,7.737176061851473,0.7594627845073885,1.269204601152984
0.0593348352834029,0.0201354379696375,0.9999920090528398,7.962085386738389,0.7827870816530192,1.2608328086441027
0.063573037803646,0.0200298979336517,0.9999919651432656,8.17745425543796,0.803849596630292,1.252584705613423
0.067811240323889,0.0199256322033587,0.9999919594078912,8.383760823226623,0.8228696604203282,1.2444501766471772
0.0720494428441321,0.0198225378961068,0.9999919858000054,8.581425042136306,0.8400453346567065,1.236420218248694
0.0762876453643752,0.0197205225564239,0.99999203904333,8.770818877207276,0.8555554742103898,1.2284867728284048
0.0805258478846182,0.0196195026977546,0.9999921145562788,8.952274050642306,0.869561589757746,1.2206425917670456
0.0847640504048613,0.0195194025777964,0.9999922083757882,9.12608806712604,0.8822095297266943,1.2128811219342903
0.0890022529251044,0.019420153167866,0.9999923170847144,9.292529002000462,0.893630999135957,1.2051964111415694
0.0932404554453474,0.0193216912825615,0.9999924377447716,9.451839372730856,0.9039449311443614,1.1975830289245235
0.0974786579655905,0.0192239588416987,0.9999925678358008,9.604239314291814,0.9132587255935336,1.1900359997893823
0.1017168604858336,0.0191269022415364,0.9999927052015004,9.749929214990114,0.9216693674423468,1.1825507466428469
0.1059550630060766,0.0190304718165405,0.9999928480013576,9.889091926662497,0.929264436740728,1.1751230425854489
0.1101932655263197,0.0189346213764054,0.9999929946683512,10.021894634060176,0.9361230206609332,1.1677489696096923
0.1144314680465628,0.0188393078058711,0.9999931438718944,10.14849044777809,0.9423165370844044,1.160424883028221
0.1186696705668058,0.0187444907171439,0.999993294485478,10.26901977038633,0.9479094783212324,1.15314738068101
0.1229078730870489,0.0186501321465564,0.9999934455584862,10.383611474636933,0.952960082707486,1.1459132761475483
0.127146075607292,0.0185561962885744,0.9999935962916894,10.492383924563391,0.9575209410745384,1.1387195753306203
0.131384278127535,0.0184626492614508,0.999993746015962,10.595445864174732,0.9616395444062602,1.1315634558905594
0.1356224806477781,0.0183694588997824,0.9999938941738196,10.69289719373704,0.9653587783874418,1.1244422490989303
0.1398606831680212,0.0182765945700115,0.999994040303412,10.78482964996287,0.9687173699937212,1.1173534237532026
0.1440988856882642,0.0181840270055475,0.9999941840246532,10.87132740353097,0.9717502907738153,1.110294571852799
0.1483370882085073,0.018091728158705,0.9999943250272052,10.952467585048849,0.9744891210238448,1.1032633957847668
0.1525752907287504,0.0179996710670812,0.9999944630600682,11.02832074871119,0.9769623786462548,1.0962576968064366
0.1568134932489934,0.0179078297323455,0.9999945979225664,11.098951281397122,0.9791958161180409,1.0892753646445203
0.1610516957692365,0.0178161743914548,0.999994729456533,11.164152434994664,0.9812126886608854,1.082314368056541
0.1652898982894796,0.017724674961019,0.9999948575395368,11.223647344543595,0.9830339964058892,1.075372746222325
0.1695281008097226,0.0176333078386027,0.9999949820790034,11.277487357059671,0.9846787030747614,1.0684486008513785
0.1737663033299657,0.0175420499848603,0.999995103007107,11.325719266305727,0.9861639334547664,1.0615400889069813
0.1780045058502088,0.0174508788255825,0.9999952202763204,11.368384501694392,0.9875051517239004,1.0546454158603282
0.1822427083704518,0.0173597721767246,0.9999953338555064,11.405519337091736,0.9887163224833506,1.047762829398399
0.1864809108906949,0.0172687081732894,0.9999954437263748,11.437155070637782,0.98981005617442,1.0408906135178622
0.190719113410938,0.0171776652013725,0.9999955498798372,11.4633181778189,0.9907977403955044,1.034027082944429
0.194957315931181,0.0170866218327307,0.9999956523109949,11.48403043964987,0.9916896584921728,1.0271705778229223
0.1991955184514241,0.0169955567612848,0.9999957510097685,11.49930904748947,0.9924950966745262,1.020319458628087
0.2034337209716672,0.0169044487410001,0.9999958459416196,11.509166685717874,0.9932224408308812,1.0134721012499597
0.2076719234919102,0.0168132765246168,0.9999959370108096,11.513611593241096,0.9938792641658593,1.0066268922105703
0.2119101260121533,0.0167220200352644,0.999996024002904,11.512719513653725,0.9944724067894452,0.9997822239709117
0.2161483285323964,0.0166306566991816,0.9999961065185724,11.506333992262077,0.9950080483801842,0.992936605134464
0.2203865310526394,0.0165391666999979,0.999996183885027,11.494142477411344,0.995491774956368,0.9860889572219116
0.2246247335728825,0.0164475366002158,0.99999625507738,11.476138495747216,0.9959286405165876,0.9792382924208628
0.2288629360931256,0.0163557527541828,0.9999963187132777,11.452312579386644,0.9963232238320912,0.972383616921756
0.2331011386133686,0.0162638012825069,0.9999963731393924,11.422652244817437,0.9966796800792248,0.9655239291396452
0.2373393411336117,0.0161716680452621,0.999996416617781,11.387141963283264,0.9970017864922556,0.958658217894852
0.2415775436538548,0.016079338613826,0.9999964476007278,11.34576312209379,0.997292981033401,0.951785460543208
0.2458157461740978,0.0159867982411808,0.9999964650667554,11.29849397620208,0.9975563933541108,0.944904621046436
0.2500539486943409,0.0158940318304935,0.999996468880495,11.24530958939834,0.9977948680221532,0.93801464797282
0.254292151214584,0.0158010239017803,0.9999964601271152,11.186181764571852,0.9980109809151848,0.9311144724176932
0.258530353734827,0.0157077585564342,0.999996441349426,11.121078962648133,0.9982070505631868,0.9242030058322788
0.26276855625507,0.0156142194393732,0.9999964165852292,11.049966209956988,0.9983851468231189,0.9172791377480785
0.2670067587753131,0.0155203896985298,0.9999963910880828,10.972804993875863,0.9985470994551598,0.9103417333823508
0.2712449612955561,0.0154262519413652,0.999996370658542,10.889553146583244,0.9986945089208646,0.903389631108283
0.2754831638157992,0.0153317881880401,0.9999963606451152,10.800164716631343,0.99882876110308,0.8964216397712991
0.2797213663360422,0.0152369798208234,0.999996364860555,10.704589827802913,0.9989510467650587,0.889436535830685
0.2839595688562852,0.0151418075292567,0.9999963847820724,10.602774524363548,0.9990623855567528,0.8824330603032967
0.2881977713765283,0.0150462512505236,0.9999964193387536,10.49466060138441,0.9991636533990428,0.8754099154836346
0.2924359738967713,0.0149502901043971,0.9999964653372728,10.38018541833414,0.9992556113113596,0.8683657614119359
0.2966741764170144,0.014853902322051,0.9999965182988512,10.259281693681787,0.9993389333633556,0.8612992120590524
0.3009123789372574,0.0147570651679233,0.9999965733567427,10.131877277870448,0.9994142315246082,0.8542088311935994
0.3051505814575004,0.0146597548537002,0.999996625935514,9.997894901743887,0.9994820757294546,0.8470931278929221
0.3093887839777435,0.0145619464433539,0.9999966721011252,9.85725189732175,0.9995430083065128,0.8399505516546278
0.3136269864979865,0.0144636137479934,0.999996708613202,9.709859887665312,0.999597552809029,0.83277948705953
0.3178651890182296,0.0143647292090854,0.999996732774187,9.55562444238,0.9996462180043044,0.8255782479296752
0.3221033915384726,0.0142652637683401,0.9999967421664512,9.394444694988968,0.9996894982094674,0.8183450709164665
0.3263415940587156,0.0141651867222496,0.99999673433255,9.226212917938408,0.9997278712798155,0.8110781084436078
0.3305797965789587,0.0140644655588785,0.9999967064111812,9.050814050336964,0.9997617954324588,0.8037754209174164
0.3348179990992017,0.0139630657740307,0.9999966547003536,8.868125172682483,0.9997917058249988,0.7964349681026203
0.3390562016194448,0.0138609506633328,0.999996574073789,8.678014921787666,0.9998180115023784,0.7890545995447342
0.3432944041396878,0.0137580810860414,0.9999964571078844,8.48034283786684,0.9998410930404844,0.7816320438997357
0.3475326066599308,0.0136544151954582,0.9999962926442424,8.274958634262621,0.9998613009830344,0.7741648970074421
0.3517708091801739,0.0135499081296752,0.9999960632217948,8.061701378524068,0.9998789549889504,0.7666506085156437
0.3560090117004169,0.0134445116548683,0.9999957401078532,7.840398571424818,0.999894343454028,0.7590864668264657
0.36024721422066,0.0133381737514201,0.9999952727620368,7.610865107929899,0.9999077231788834,0.7514695820930806
0.364485416740903,0.013230838130603,0.9999945637357368,7.372902100935497,0.9999193182631022,0.7437968669417293
0.368723619261146,0.0131224436661701,0.9999933984565704,7.126295544585449,0.9999293163078418,0.7360650145285731
0.3729618217813891,0.0130129237206426,0.999991194915324,6.870814788762059,0.999937856198974,0.7282704734602026
0.3772000243016321,0.0129022053399077,0.9999856291504026,6.606210791158851,0.9999449845196714,0.7204094190084182
0.3814382268218751,0.0127902082848902,0.9999468141221568,6.332214258104068,0.9999504345229197,0.7124777199448143
0.3856764293421182,0.0126771785621644,1.470984310008202e-05,6.062695749004075,0.9999499435113386,0.7044709006413625
0.3899146318623612,0.0125607201738202,3.648443365822108e-06,5.684614493236357,0.8275455405297805,0.6964152096065903
0.3941528343826043,0.0124422232867283,1.393740881814031e-06,5.236121395145504,0.6848647310203808,0.6883634354254373
0.3983910369028473,0.0123213190221002,6.275669441956782e-07,4.687474830119867,0.5667841718414856,0.6803685266751575
0.4026292394230903,0.0121979945704982,3.1662799284810817e-07,4.018293531580104,0.4690626110457498,0.6725174428690021
0.4068674419433334,0.0120736296092929,1.7748906948095197e-07,3.250172560255149,0.3881898837137146,0.6649482827667116
0.4111056444635764,0.0119526156420582,1.1014734286935323e-07,2.4735718312229573,0.321260989194105,0.657877612811314
0.4153438469838195,0.0118439007798372,7.472355395214495e-08,1.824236546947108,0.2658717819448597,0.6516602375069293
0.4195820495040625,0.0117600175685935,5.4766283831515796e-08,1.3524916275806578,0.220032625816772,0.6470051523564998
0.4238202520243055,0.0117120690533692,3.064675197714649e-07,0.9755612015749916,0.182096929504975,0.6449374653054142
0.4245820495040625,0.0117068660553162,2.9588365134211775e-07,0.8891987851070859,0.1760072066174224,0.6449374653054127
0.4253438469838194,0.0117019503828806,2.856557884901094e-07,0.8112585466969943,0.1701211486656886,0.6449375789996832
0.4261056444635763,0.0116992790879608,2.758101913467793e-07,0.7702148590008286,0.1644319442715822,0.6449385753635359
0.4268674419433332,0.0116976724551148,2.663765023019624e-07,0.7417433693975652,0.158933009858191,0.6449609213372176
0.4276292394230901,0.01169716628919,2.573697865362728e-07,0.7237443155144286,0.153617982031386,0.6450146887173143
0.428391036902847,0.0116983239784566,2.488779171146985e-07,0.7204697920551952,0.14848071021552,0.6451183473781209
0.4291528343826039,0.0117017487577939,2.412568161031965e-07,0.729306727651909,0.1435152495383397,0.6453299817352444
0.4299146318623608,0.0117082716748819,2.3500992568123255e-07,0.7231207281981801,0.1387158539603864,0.6458509834104915
0.4306764293421177,0.0117212082723045,2.3024695420559647e-07,0.7075394284968703,0.1340769696301459,0.6469018281311201
0.4314382268218746,0.0117414197603408,2.2671697846839395e-07,0.6918697527080295,0.1295932284433278,0.6484997690162494
0.4322000243016315,0.0117686209477593,2.241711611998373e-07,0.678329004804722,0.1252594418186567,0.6506117028289241
0.4329618217813885,0.0118023498436906,2.2242298796428794e-07,0.6672210996967137,0.1210705946939564,0.6532010376454507
0.4337236192611454,0.0118421432003804,2.2133644553366598e-07,0.6583592565304299,0.1170218397250444,0.6562337184635877
0.4344854167409023,0.0118875714954861,2.2081199445073658e-07,0.6514403223527506,0.113108491678244,0.6596789276860812
0.4352472142206592,0.011938244384828,2.207762222993169e-07,0.6461568497060375,0.1093260220099641,0.6635088886973524
0.4360090117004161,0.0119938087019901,2.2117463780860777e-07,0.6422312944449049,0.1056700536272148,0.6676985121266895
0.436770809180173,0.0120539446136337,2.219666661516901e-07,0.6394241626706122,0.1021363558231113,0.6722250447288619
0.4375326066599299,0.0121183615858798,2.2312214002346335e-07,0.6375330339831717,0.0987208393815878,0.677067757615362
0.4382944041396868,0.0121867946710108,2.246188097306901e-07,0.636388573315401,0.0954195518457131,0.6822076790292684
0.4390562016194437,0.0122590012480775,2.264405556068692e-07,0.6358498589270071,0.0922286729441693,0.6876273682132403
0.4398179990992006,0.0123347582202038,2.2857609134257e-07,0.6357999112318649,0.0891445101706281,0.6933107248674217
0.4405797965789575,0.0124138596269217,2.3101801544285697e-07,0.6361417267402553,0.0861634945109278,0.6992428286751817
0.4413415940587145,0.0124961146178865,2.3376211307325322e-07,0.6367948832277464,0.0832821763131189,0.7054098039620722
0.4421033915384714,0.0125813457347947,2.3680684050481121e-07,0.6376926870428761,0.0804972212956093,0.7117987052685883
0.4428651890182283,0.0126693874533313,2.401529445631757e-07,0.63877979975085,0.0778054066887961,0.7183974202985662
0.4436269864979852,0.0127600849432547,2.4380318329973384e-07,0.6400102740917266,0.0752036175057239,0.7251945873032187
0.4443887839777421,0.012853293010949,2.477621236841323e-07,0.6413459329904541,0.072688842937459,0.7321795244680652
0.445150581457499,0.0129488751944256,2.520359988532351e-07,0.6427550331064903,0.0702581728690103,0.7393421692930789
0.4459123789372559,0.0130467029856747,2.5663261224944584e-07,0.6442111630340157,0.0679087945117658,0.7466730263063744
0.4466741764170128,0.013146655159462,2.6156127944357104e-07,0.6456923344305855,0.0656379891485532,0.7541631217401793
0.4474359738967697,0.0132486171911912,2.6683280096952297e-07,0.647180231566159,0.0634431289875555,0.7618039640351306
0.4481977713765266,0.0133524807494012,2.724594613768228e-07,0.6486595909315453,0.0613216741214445,0.7695875092341259
0.4489595688562836,0.0134581432509115,2.7845505112343384e-07,0.6501176876783714,0.0592711695882123,0.7775061304875952
0.4497213663360405,0.013565507468666,2.848349090200156e-07,0.6515439098982755,0.057289242530303,0.7855525910243772
0.4504831638157974,0.0136744811840014,2.916159837926211e-07,0.652929405219782,0.0553735994487542,0.7937200200515044
0.4512449612955543,0.0137849768764658,2.988169140229606e-07,0.6542667870340422,0.0535220235491749,0.8020018911363272
0.4520067587753112,0.013896911445462,3.064581263042344e-07,0.655549889967557,0.0517323721764864,0.8103920026989212
0.4527685562550681,0.0140102059589479,3.145619519542203e-07,0.6567735660974644,0.0500025743354601,0.8188844603044477
0.453530353734825,0.0141247854252186,3.231527630852094e-07,0.657933514932619,0.0483306282941815,0.8274736604963212
0.4542921512145819,0.0142405785844512,3.3225712926609334e-07,0.6590261414276782,0.0467145992676701,0.8361542759535391
0.4550539486943388,0.0143575177172403,3.41903996445262e-07,0.6600484373112716,0.0451526171789727,0.8449212417908651
0.4558157461740957,0.0144755384678052,3.521248902515323e-07,0.6609978818367159,0.0436428744951409,0.853769742849994
0.4565775436538526,0.0145945796799274,3.629541462706963e-07,0.661872358740008,0.0421836241355903,0.8626952018543376
0.4573393411336096,0.0147145832439921,3.744291704239941e-07,0.6626700867433435,0.0407731774504193,0.8716932683205215
0.4581011386133665,0.0148354939537681,3.865907331694237e-07,0.6633895613963696,0.0394099022663501,0.8807598081367695
0.4588629360931234,0.0149572593717804,3.994833019266255e-07,0.664029506420286,0.0380922209980317,0.889890893732625
0.4596247335728803,0.0150798297023117,4.131554169132696e-07,0.6645888330267953,0.0368186088225196,0.8990827947763709
0.4603865310526372,0.0152031576712201,4.276601165014659e-07,0.6650666059370182,0.0355875919148209,0.9083319693465134
0.4611483285323941,0.0153271984118899,4.430554192878548e-07,0.6654620150345459,0.034397745742464,0.9176350555320116
0.461910126012151,0.0154519093567366,4.5940487135857227e-07,0.665774351759964,0.0332476934171217,0.9269888634229349
0.4626719234919079,0.0155772501337764,4.7677816876672155e-07,0.6660029894977444,0.03213610410138,0.9363903674590568
0.4634337209716648,0.0157031824678455,4.95251867082832e-07,0.6661473673258265,0.031061691468813,0.9458366991087844
0.4641955184514217,0.0158296700861159,5.149101920998734e-07,0.6662069765976136,0.0300232122155824,0.9553251398548916
0.4649573159311786,0.0159566786276051,5.358459684638053e-07,0.6661813499091743,0.0290194646218423,0.9648531144669192
0.4657191134109356,0.0160841755564226,5.581616862721936e-07,0.6660700520738705,0.0280492871612874,0.9744181845429604
0.4664809108906925,0.0162121300785289,5.819707296816309e-07,0.6658726727848756,0.02711155715724,0.9840180423058986
0.4672427083704494,0.0163405130617779,6.073987964136687e-07,0.665588820173672,0.0262051894837234,0.993650504641118
0.4680045058502063,0.0164692969565177,6.34585535794373e-07,0.6652180810303782,0.0253291353100241,1.0033135073544703
0.4687663033299632,0.016598455709775,6.636864351975466e-07,0.6647599436810362,0.0244823808872965,1.0130050991491573
0.4695281008097201,0.0167279647071386,6.948750587835006e-07,0.6642140186546852,0.0236639463758109,1.0227234360876123
0.470289898289477,0.0168578007083753,7.283456733670011e-07,0.6635799573217805,0.0228728847114983,1.0324667771980716
0.4710516957692339,0.0169879417803617,7.643163233679784e-07,0.6628574144446149,0.0221082805104904,1.042233479645381
0.4718134932489908,0.0171183672341741,8.030324631485582e-07,0.6620460470529658,0.0213692490103989,1.052021994019543
0.4725752907287477,0.0172490575646474,8.447712679033891e-07,0.6611455136962161,0.0206549350471246,1.061830859807595
0.4733370882085047,0.0173799943923218,8.898467744405439e-07,0.6601554739999603,0.0199645120660302,1.0716587010431131
0.4740988856882616,0.0175111604077006,9.386160428813032e-07,0.6590755884662106,0.0192971811663554,1.081504222127958
0.4748606831680185,0.0176425420971426,9.914865820769506e-07,0.6579442825321283,0.0186521701777966,1.0913662038211436
0.4756224806477754,0.0177741838286743,1.0489253496118146e-06,0.6575932135830821,0.0180287327682184,1.101243499389926
0.4763842781275323,0.0179060956526191,1.1114697275379407e-06,0.6583624003666243,0.0174261475815071,1.1111350309183678
0.4771460756072892,0.0180382642509635,1.1797409958106648e-06,0.6602563321754047,0.0168437174046261,1.121039785768776
0.4779078730870461,0.0181706768921878,1.2544609886894672e-06,0.6632790429324711,0.0162807683629778,1.1309568131915213
0.478669670566803,0.0183033213926591,1.3364728423829845e-06,0.66743414595035,0.0157366491432334,1.140885221078838
0.4794314680465599,0.01843618608264,1.4267670502276026e-06,0.6727248666659943,0.0152107302428489,1.1508241728582729
