Time [s],Lmtc [m],STIM [ ],Fsee [N],Gamma [ ],Lcerel [ ]
0.0,0.0189730790075519,0.999999882608684,1.9753417439572003,0.1020622696842435,1.1859935356813662
0.0012525487500171,0.0189909092417245,0.9999998676590122,2.943507812308236,0.1287266216648621,1.1846244268663677
0.0025050975000343,0.0189868585463024,0.99999984268947,3.820385597511771,0.1545991724614212,1.1822358520006353
0.0037576462500514,0.0189689882871884,0.9999998091962728,4.563518793612497,0.1797034343959276,1.1793101739919711
0.0050101950000686,0.0189416259568172,0.9999997681274336,5.159829745025431,0.2040622216339404,1.1760770569692736
0.0062627437500857,0.0189077293334294,0.999999720367148,5.6259924208592444,0.2276976709001208,1.1726582370247551
0.0075152925001029,0.0188693673257769,0.9999996667730272,5.989258663638344,0.2506312615930159,1.1691226906718368
0.0087678412501201,0.0188279485996664,0.999999608166667,6.275321633190718,0.2728838353036376,1.1655115470737236
0.0100203900001372,0.0187844200187058,0.9999995453164088,6.504575147774711,0.2944756147541552,1.1618504605718547
0.0112729387501544,0.0187394186812946,0.999999478923722,6.692101960729976,0.3154262221736891,1.158156068741656
0.0125254875001715,0.0186933773070593,0.9999994096154666,6.848741835616292,0.3357546971280298,1.1544395225325343
0.0137780362501887,0.0186465938359615,0.9999993379412754,6.982220591871961,0.3554795138196709,1.1507085026466304
0.0150305850002058,0.0185992765637293,0.9999992643746488,7.098056468398561,0.3746185978740388,1.146968418806411
0.016283133750223,0.0185515733650301,0.9999991893164504,7.200221057735059,0.3931893426272858,1.1432231495258278
0.0175356825002402,0.0185035907542988,0.9999991130997764,7.29160270074714,0.4112086249305186,1.1394755135543155
0.0187882312502573,0.0184554064699259,0.9999990359954578,7.374326671354291,0.4286928204848647,1.135727579168652
0.0200407800002745,0.0184070779035529,0.99999895821769,7.449975896267674,0.4456578187213239,1.1319808723990197
0.0212933287502916,0.0183586478339438,0.999998879929456,7.519743746412559,0.4621190372389308,1.1282365204846871
0.0225458775003088,0.0183101483884249,0.9999988012475444,7.5845406227682,0.478091435814331,1.1244953527654735
0.023798426250326,0.0182616038217236,0.9999987222470448,7.645069023099329,0.4935895299954965,1.120757972961102
0.0250509750003431,0.0182130324939546,0.999998642965264,7.701876965345142,0.508627404291903,1.11702481181889
0.0263035237503603,0.018164448298258,0.9999985634050416,7.755396419669273,0.5232187249731423,1.1132961660386698
0.0275560725003774,0.0181158617048132,0.9999984835374623,7.805971255065157,0.5373767524875752,1.1095722274415825
0.0288086212503946,0.0180672805337628,0.9999984033039822,7.853877776773638,0.5511143535122941,1.1058531050948868
0.0300611700004118,0.0180187105340591,0.9999983226179712,7.899339973870615,0.564444012645321,1.1021388422785985
0.0313137187504289,0.0179701558216366,0.9999982413656924,7.94254095133032,0.5773778437506526,1.0984294296256552
0.0325662675004461,0.0179216192144226,0.999998159406714,7.983631582348947,0.5899276009664414,1.0947248153894689
0.0338188162504632,0.0178731024908529,0.9999980765737516,8.022737115856211,0.6021046893862991,1.091024913531162
0.0350713650004804,0.0178246062930346,0.9999979926719204,8.059947716873289,0.6139201754234147,1.0873296101350658
0.0363239137504975,0.0177761283231514,0.9999979074773618,8.095226301144926,0.6253847968668845,1.083638768530353
0.0375764625005147,0.0177276677250708,0.999997820735192,8.12861918888542,0.6365089726393796,1.079952233402507
0.0388290112505319,0.0176792237766036,0.9999977321566924,8.160190529953876,0.6473028122649963,1.076269834109714
0.040081560000549,0.0176307953753436,0.9999976414156392,8.18999532215797,0.6577761250558751,1.0725913873687378
0.0413341087505662,0.0175823811026528,0.9999975481436264,8.218080955430347,0.6679384290259117,1.068916699437224
0.0425866575005833,0.0175339792753903,0.9999974519241954,8.244488453659706,0.677798959539638,1.0652455678911774
0.0438392062506005,0.0174855879879075,0.999997352285526,8.269253479398083,0.687366677704096,1.0615777830749398
0.0450917550006177,0.0174372051462614,0.9999972486913608,8.292407151384854,0.6966502785113006,1.0579131292846902
0.0463443037506348,0.017388828496165,0.999997140529742,8.313976713389263,0.7056581987386381,1.0542513857338838
0.047596852500652,0.0173404556458682,0.9999970270989958,8.33398608424859,0.7143986246143309,1.0505923273393063
0.0488494012506691,0.0172920840849116,0.9999969075902232,8.35245631243188,0.7228794992548553,1.0469357253588012
0.0501019500006863,0.0172437111994988,0.9999967810652928,8.369405953455503,0.7311085298809877,1.0432813479057252
0.0513544987507035,0.0171953342850854,0.9999966464289952,8.38485138462904,0.7390931948189142,1.0396289603604651
0.0526070475007206,0.0171469505566638,0.9999965023935132,8.398807068632541,0.7468407502926153,1.0359783256955617
0.0538595962507378,0.017098557157129,0.9999963474326587,8.411285775109365,0.7543582370134948,1.0323292047279755
0.0551121450007549,0.0170501511640403,0.9999961797223156,8.422298767645044,0.7616524865729697,1.028681356309593
0.0563646937507721,0.017001729595032,0.9999959970620124,8.431855962075891,0.7687301276434642,1.025034537465104
0.0576172425007892,0.0169532894120815,0.999995796770296,8.439966060942258,0.775597591992933,1.0213885034847958
0.0588697912508064,0.0169048275248053,0.9999955755431288,8.446636668004109,0.782261120317681,1.0177430079784735
0.0601223400008236,0.0168563407929232,0.999995329259136,8.451874386019908,0.7887267678977641,1.0140978028956655
0.0613748887508407,0.016807826028004,0.9999950527069008,8.455684900414521,0.7950004100786774,1.010452638516376
0.0626274375008579,0.016759279994591,0.999994739195332,8.458073050998069,0.8010877475821596,1.0068072634159149
0.063879986250875,0.0167106994081139,0.999994379984126,8.459042760124392,0.8069943116477267,1.0031614244067044
0.0651325350008922,0.0166620817410429,0.9999939634319064,8.458637450715845,0.8127254690046141,0.999514866375524
0.0663850837509093,0.0166134219263906,0.999993473693835,8.456757087198406,0.8182864266707782,0.995867359438495
0.0676376325009265,0.0165647156235568,0.9999928886222592,8.453293253499092,0.8236822365707184,0.992218741399428
0.0688901812509436,0.0165159608236395,0.9999921762578652,8.448247437103213,0.8289177999538357,0.9885688607840528
0.0701427300009608,0.0164671554758491,0.9999912887079974,8.441620634453027,0.8339978715773874,0.984917564380148
0.0713952787509779,0.0164182974879279,0.9999901507915844,8.433413376249844,0.8389270635834487,0.9812646972337264
0.0726478275009951,0.0163693847263453,0.999988637359814,8.423625749192965,0.8437098489235646,0.9776101026355272
0.0739003762510122,0.0163204150162848,0.9999865234902116,8.412257414510453,0.8483505640082428,0.9739536220986086
0.0751529250010294,0.016271386141438,0.9999833602755186,8.399307623460398,0.8528534097987934,0.9702950953277744
0.0764054737510465,0.0162222958436104,0.999978103534717,8.384775229638839,0.857222449178324,0.9666343601815186
0.0776580225010637,0.016173141822131,0.9999676376733622,8.368658697130302,0.8614615933754447,0.9629712526273452
0.0789105712510808,0.016123921733083,0.9999365849145062,8.350956104148585,0.8655745449574399,0.9593056066923346
0.080163120001098,0.0160746540187401,0.5292871924647954,8.332699010270685,0.8695644399033297,0.9556372544188108
0.0814156687511152,0.0160251819600865,2.9268970973157188e-05,8.305800026109505,0.8510556188544252,0.9519666820400248
0.0826682175011323,0.0159753863487272,1.269449350055748e-05,8.263421817989808,0.8047653438442446,0.9482953856116768
0.0839207662511495,0.015925475766954,7.265762675000111e-06,8.215182049440282,0.7609920854936336,0.9446245500088084
0.0851733150011666,0.0158754379070306,4.658556382013274e-06,8.160253767671303,0.7195995391842112,0.94095459506746
0.0864258637511838,0.0158252588466024,3.176871862474084e-06,8.097672962220573,0.6804583616815821,0.9372860598364948
0.0876784125012009,0.0157749229443884,2.2516104366175755e-06,8.026325732008427,0.6434461530095384,0.9336196258503944
0.0889309612512181,0.0157244128103796,1.6384026416365525e-06,7.944938838002868,0.6084471400740553,0.9299561446619036
0.0901835100012352,0.0156737094049362,1.215244267723214e-06,7.852076484991415,0.5753518338631259,0.9262966703509098
0.0914360587512524,0.0156227923401685,9.146766689861448e-07,7.746147067938165,0.5440566942856104,0.9226424978125712
0.0926886075012695,0.0155716404811764,6.96558242270421e-07,7.62542463533488,0.514463809551922,0.9189952077265876
0.0939411562512867,0.0155202329710936,5.356534042493221e-07,7.488090722082742,0.4864805915134558,0.9153567192118038
0.0951937050013038,0.0154685508282516,4.154132997708194e-07,7.332302657908052,0.4600194868986808,0.9117293512706868
0.096446253751321,0.0154165792790148,3.246208131029505e-07,7.156293972565768,0.4349977039179959,0.9081158942184712
0.0976988025013381,0.0153643109851739,2.554705749231301e-07,6.95851046092918,0.4113369535571805,0.9045196923588226
0.0989513512513553,0.0153117502863624,2.0241571928825105e-07,6.737781178985095,0.3889632048385237,0.9009447391907882
0.1002039000013724,0.0152589184914493,1.614467380510309e-07,6.493516696419484,0.3678064533315759,0.8973957863791737
0.1014564487513896,0.015205860109027,1.2962500356293474e-07,6.225917581569631,0.3478005022163243,0.8938784675499376
0.1027089975014067,0.0151526497107416,1.0477223945330081e-07,5.9361657542017925,0.3288827552298716,0.8903994376425426
0.1039615462514239,0.0150993989016247,8.525868741203187e-08,5.626562909766312,0.3109940208587013,0.8869665280738133
0.105214095001441,0.0150462626914259,6.98555447958166e-08,5.300577833285246,0.2940783271702097,0.8835889175742321
0.1064666437514582,0.0149934445183555,5.763030174704819e-08,4.962772284294633,0.2780827467082847,0.8802773191629255
0.1077191925014753,0.0149411993956208,4.787133079222402e-08,4.618595307261554,0.2629572309078393,0.8770441880282346
0.1089717412514925,0.0148898352473885,4.003281134457e-08,4.274065237894935,0.2486544535121184,0.8739039695425603
0.1102242900015096,0.014839713485403,3.369409686810458e-08,3.935386104935613,0.235129662504184,0.8708734431057448
0.1114768387515268,0.014791250936192,2.8529689236598353e-08,3.608550751745533,0.2223405400902478,0.8679722874557165
0.1127293875015439,0.0147449253822611,2.4287428139155776e-08,3.298948124046638,0.2102470702974487,0.8652240765791827
0.1139819362515611,0.0147012843870566,2.0773310851191104e-08,3.010927971110488,0.1988114137723477,0.8626578846161996
0.1152344850015782,0.0146609496616429,1.7841186185427904e-08,2.747260624502509,0.1879977893888191,0.8603102118630408
0.1164870337515954,0.0146245973423459,1.5384289253392653e-08,2.508591988786939,0.1777723622952158,0.8582256559709659
0.1177395825016126,0.0145928860594312,1.33246128894909e-08,2.2933358797038275,0.168103138050648,0.8564529976950249
0.1189921312516297,0.0145663178373805,1.159877045099334e-08,2.098525119000706,0.1589598625190465,0.8550336160763686
0.1202446800016469,0.0145450678572523,1.0145576267164722e-08,1.9213619671748103,0.1503139272076298,0.8539848272609257
0.121497228751664,0.0145288827813015,8.902896050606632e-09,1.7602454240292964,0.1421382797537258,0.8532888824228132
0.1227497775016812,0.0145171364526741,7.813653930968483e-09,1.6145458926961531,0.1344073392804117,0.8528971690687506
0.1240023262516983,0.0145080991934934,6.830524685442975e-09,1.4646671209509263,0.1270969163566345,0.8527463683174785
0.1252548750017155,0.0144976199189938,6.125165993009544e-08,1.2547350237770736,0.1201841373112848,0.8527462940590854
0.1255407877901599,0.0145011954731472,6.035498362516633e-08,1.3245468772580684,0.1186596612962213,0.8527462940590845
0.1258267005786043,0.0145007287290498,5.947857281042612e-08,1.3092577876282825,0.1171545241088616,0.8527694070441338
0.1261126133670486,0.0145004913887673,5.861735594309616e-08,1.2966771557510033,0.1156684804255134,0.852799687146059
0.126398526155493,0.0145005278828612,5.777204714761437e-08,1.2872401385814696,0.1142012880344899,0.8528386475828009
0.1266844389439374,0.0145009020260714,5.694397805071735e-08,1.281559281022779,0.112752707796705,0.8528885840663928
0.1269703517323818,0.0145017064877741,5.613562515029707e-08,1.2804597575062815,0.1113225036067041,0.8529531709771405
0.1272562645208262,0.0145030703910373,5.535175121193111e-08,1.2848167925336036,0.109910442354195,0.853038702778672
0.1275421773092706,0.0145051356893454,5.460165524962853e-08,1.2944071513839848,0.1085162938860814,0.8531567910680716
0.127828090097715,0.0145079698910358,5.3901217613105086e-08,1.304831466547011,0.1071398309690072,0.8533295109474948
0.1281140028861594,0.0145116818315948,5.3268563180801944e-08,1.3089164572239167,0.105780829252401,0.8535923807541721
0.1283999156746038,0.0145166711514227,5.271449874318197e-08,1.3054461074842123,0.1044390672319351,0.8539799087208672
0.1286858284630482,0.0145233182889147,5.223996640325018e-08,1.2973940419098622,0.1031143262133264,0.8545093532433767
0.1289717412514926,0.0145318052691787,5.18407873044088e-08,1.2872043344595434,0.101806390276564,0.8551851302807736
0.129257654039937,0.0145421882544336,5.151140863727703e-08,1.2762334914678417,0.1005150462406515,0.8560063118207595
0.1295435668283814,0.0145544648817147,5.124634927502874e-08,1.2651903345730255,0.099240083628843,0.8569700118636998
0.1298294796168257,0.0145686065424601,5.104064011640842e-08,1.2544456351417037,0.09798129463434,0.8580726459590015
0.1301153924052701,0.0145845728343057,5.088992104117464e-08,1.2441920380289553,0.0967384740864271,0.8593104171384167
0.1304013051937145,0.0146023182747254,5.079042455931328e-08,1.234524949814854,0.0955114194170402,0.8606795172193915
0.1306872179821589,0.0146217955844448,5.0738924704019737e-08,1.225484869865842,0.0942999306277575,0.8621762146688235
0.1309731307706033,0.0146429573630728,5.07326789549109e-08,1.217080525066449,0.0931038102572093,0.863796893382193
0.1312590435590477,0.0146657569663956,5.0769373070197617e-08,1.2093020376639352,0.0919228633489,0.8655380687051013
0.1315449563474921,0.014690148966484,5.084707203312152e-08,1.2021286841488388,0.090756897419438,0.8673963923355529
0.1318308691359365,0.0147160893843733,5.096417775637048e-08,1.1955335961318825,0.0896057224271675,0.8693686516054823
0.1321167819243809,0.0147435357946051,5.1119393222517586e-08,1.1894866688179735,0.0884691507411984,0.8714517658871087
0.1324026947128253,0.0147724473558804,5.131169241715228e-08,1.183956385722682,0.0873469971108275,0.8736427815580693
0.1326886075012697,0.0148027847985813,5.1540295353269307e-08,1.1789109706465877,0.0862390786353488,0.8759388663008596
0.1329745202897141,0.0148345103871505,5.180464753164524e-08,1.1743191128405122,0.0851452147342449,0.8783373031665116
0.1332604330781585,0.0148675878681243,5.2104403264476734e-08,1.1701504165981296,0.0840652271177573,0.8808354846440271
0.1335463458666028,0.0149019824104283,5.24394123795884e-08,1.1663756705254715,0.0829989397578292,0.8834309068710733
0.1338322586550472,0.01493766054204,5.2809709908339145e-08,1.1629669977300623,0.0819461788594174,0.8861211640602109
0.1341181714434916,0.0149745900855891,5.3215508437904665e-08,1.159897927011269,0.0809067728321674,0.8889039431788505
0.134404084231936,0.0150127400945061,5.365719287724523e-08,1.1571434116803163,0.0798805522624477,0.8917770188996025
0.1346899970203804,0.0150520807907157,5.4135317446558814e-08,1.1546798139197474,0.0788673498857394,0.8947382488247286
0.1349759098088248,0.0150925835044819,5.465060475371437e-08,1.1524848668455483,0.0778670005593756,0.8977855689806726
0.1352618225972692,0.0151342206167473,5.5203946869543045e-08,1.1505376225907038,0.0768793412356263,0.9009169895740636
0.1355477353857136,0.015176965504146,5.579640835841378e-08,1.1488183921229556,0.0759042109351257,0.9041305909980536
0.135833648174158,0.0152207924867544,5.6429231262651655e-08,1.1473086807235984,0.0749414507206353,0.9074245200764932
0.1361195609626024,0.0152656767785711,5.7103842080423776e-08,1.145991121818029,0.0739909036711411,0.9107969865329376
0.1364054737510468,0.0153115944406719,5.782186081804073e-08,1.1448494109874137,0.0730524148562789,0.9142462596714304
0.1366913865394912,0.0153585223369528,5.858511224053921e-08,1.143868241385967,0.0721258313110843,0.917770665256275
0.1369772993279356,0.0154064380923575,5.939563949031335e-08,1.143033241363152,0.0712110020110627,0.92136858257847
0.1372632121163799,0.0154553200534754,6.025572029397027e-08,1.1423309147895886,0.0703077778475767,0.9250384416970284
0.1375491249048243,0.0155051472513903,6.116788603420837e-08,1.141748584373989,0.0694160116035448,0.9287787208440392
0.1378350376932687,0.0155558993666595,6.213494402833668e-08,1.141274338109495,0.0685355579294496,0.9325879439829527
0.1381209504817131,0.0156075566963059,6.31600034304319e-08,1.1408969788842875,0.0676662733196501,0.9364646785102158
0.1384068632701575,0.0156601001227052,6.424650526292253e-08,1.1406059772198325,0.0668080160889945,0.940407533091008
0.1386927760586019,0.0157135110842594,6.539825718912134e-08,1.1403914270519186,0.0659606463497311,0.9444151556204352
0.1389786888470463,0.0157677715477481,6.661947376528023e-08,1.1402440044381752,0.0651240259887116,0.948486231302098
0.1392646016354907,0.0158228639822572,6.791482306464145e-08,1.140154929056354,0.0642980186448843,0.9526194808365168
0.1395505144239351,0.0158787713345897,6.92894807537207e-08,1.140115928346728,0.0634824896870736,0.956813658712386
0.1398364272123795,0.0159354770060659,7.074919293165317e-08,1.1401192041472286,0.0626773061920422,0.9610675515941256
0.1401223400008239,0.0159929648306316,7.230034932844892e-08,1.1401574016696456,0.0618823369228321,0.9653799767996376
0.1404082527892683,0.0160512190541897,7.395006881246841e-08,1.140223580667693,0.0610974523073809,0.9697497808625956
0.1406941655777127,0.0161102243150841,7.570629960101869e-08,1.140311188652397,0.0603225244174116,0.9741758381739934
0.140980078366157,0.0161699656256632,7.757793712659772e-08,1.1404140360162878,0.0595574269475905,0.9786570496980272
0.1412659911546014,0.0162304283548576,7.957496321939144e-08,1.1405262729344705,0.058802035194951,0.9831923417577376
0.1415519039430458,0.0162915982117112,8.170861117017105e-08,1.1406423679180435,0.0580562260385807,0.9877806648861472
0.1418378167314902,0.0163534612298068,8.399156239883683e-08,1.1407570879025155,0.0573198779195681,0.9924209927389088
0.1421237295199346,0.016416003752511,8.643818195457039e-08,1.1408654793557724,0.056592870821206,0.9971123210647737
0.142409642308379,0.0164792124175962,8.906480182599392e-08,1.1409628254447892,0.055875086249449,1.0018536667275322
0.1426955550968234,0.0165430741400461,9.189006362929675e-08,1.1410445896422952,0.0551664072136229,1.0066440666474106
0.1429814678852678,0.0166075761068866,9.49353371089868e-08,1.141106545503742,0.0544667182073827,1.011482576884501
0.1432673806737122,0.0166727057643736,9.82252333975058e-08,1.1411447042509806,0.0537759051899175,1.0163682719749425
0.1435532934621566,0.0167384508058809,1.0178823868880121e-07,1.1411552823485691,0.053093855567401,1.0213002441563803
0.143839206250601,0.0168047991612667,1.056575030416461e-07,1.1411346896741004,0.0524204581746844,1.0262776026204152
0.1441251190390454,0.0168717389867915,1.0987183047357157e-07,1.1410795185255322,0.0517556032572319,1.0312994728030525
0.1444110318274898,0.0169392586555552,1.1447693288763447e-07,1.1409865334047702,0.0510991824532986,1.0363649957110164
0.1446969446159342,0.0170073467484246,1.1952703361937717e-07,1.1408526615211732,0.050451088776349,1.041473327281941
0.1449828574043785,0.0170759920454228,1.2508693982884236e-07,1.1406749839628254,0.0498112165977203,1.0466236377765632
0.1452687701928229,0.0171451835175572,1.312347518124393e-07,1.140450727487372,0.049179461629531,1.051815111201187
0.1455546829812673,0.0172149103190587,1.380654498914098e-07,1.1401772568877298,0.0485557209078409,1.0570469447587705
0.1458405957697117,0.017285161780013,1.4569570938906276e-07,1.1398520678913535,0.0479398927760707,1.062318348327118
0.1461265085581561,0.0173559273993602,1.5427046389298504e-07,1.1394727805548657,0.0473318768686917,1.0676285439627384
