Time [s],Lmtc [m],STIM [ ],Fsee [N],Gamma [ ],Lcerel [ ],q [ ]
0.0,0.020139143537258698,0.0,10.486929388331701,0.19283919339247724,1.2241271202403596,0.658706120143435
0.001,0.019479143537258697,0.0,0.0,0.18584834518816348,1.2165916954110636,0.6240357552743757
0.002,0.0188191435372587,0.0,0.0,0.17911099047232415,1.2058517029298368,0.584664313669648
0.003,0.0181591435372587,0.0,0.0,0.1726177796387406,1.195148128947313,0.5442446458386985
0.004,0.017499143537258698,0.0,0.0,0.16636003432596824,1.1844790346539493,0.5033002210759636
0.005,0.016839143537258697,0.0,0.0,0.1603291909490454,1.1738428342344136,0.4623808536105388
0.006,0.016179143537258696,0.0,0.0,0.15451696272587234,1.1632393213481054,0.4220353376216443
0.007,0.015519143537258698,0.0,0.0,0.14891545042410914,1.1526716365622796,0.38278502420223004
0.008,0.014859143537258698,0.0,0.0,0.1435170203032641,1.1421493130435376,0.3450999874042288
0.009000000000000001,0.014199143537258697,0.0,0.0,0.13831430242867435,1.1316929026427767,0.30938180689416805
0.01,0.01417072248462712,0.0,0.0,0.13330020467816364,1.1213443237908165,0.27595671447056797
0.011,0.014205459326732383,0.0,0.0,0.12846788861044012,1.1111771994723774,0.24507203881786804
0.012,0.014240196168837647,0.0,0.0,0.12381076407819071,1.1013057130731616,0.21689486057689436
0.013000000000000001,0.01427493301094291,0.0,0.0,0.11932247994687259,1.0918832813386676,0.1915076120151013
0.014,0.014309669853048173,0.0,0.0,0.11499691358141657,1.0830829305179626,0.16890030992495944
0.015,0.014344406695153435,0.0,0.0,0.11082816618012999,1.075051938680683,0.1489620614759801
0.016,0.0143791435372587,0.0,0.0,0.10681055407814967,1.0678731134793475,0.13149369884186726
0.017,0.014413880379363963,0.0,0.0,0.1029385962477079,1.0615548798415433,0.11624145677776836
0.018000000000000002,0.014448617221469225,0.0,0.0,0.09920701323474507,1.0560428329054157,0.10293354151304003
0.019,0.014483354063574488,0.0,0.0,0.09561071799809352,1.0512471443127598,0.09131014238268179
0.02,0.014518090905679753,0.0,0.0,0.09214479566352647,1.0470647794222665,0.08113853255382864
0.021,0.014552827747785015,0.0,0.0,0.08880453632460719,1.043397595463699,0.07221877072302726
0.022,0.014587564589890278,0.0,0.0,0.08558536646168513,1.0401559148262047,0.06438075060755703
0.023,0.01462230143199554,0.0,0.0,0.08248291124030477,1.037265915296913,0.057481765050304175
0.024,0.014657038274100805,0.0,0.0,0.0794929296594578,1.0346646651490938,0.05140065629266294
0.025,0.014691775116206068,0.0,0.0,0.07661134729551469,1.0323017236080672,0.046034670583985395
0.026000000000000002,0.01472651195831133,0.0,0.0,0.07383423527939288,1.0301359693380494,0.04129578032352456
0.027,0.014761248800416593,0.0,0.0,0.07115780343592791,1.0281339561614833,0.03710808999110379
0.028,0.014795985642521856,0.0,0.0,0.06857840500338798,1.0262687508483659,0.03340583608206239
0.029,0.01483072248462712,0.0,0.0,0.06609251842308995,1.0245182095455192,0.030131674692007546
0.03,0.014865459326732383,0.0,0.0,0.06369675837868945,1.0228644295036107,0.0272354738237907
0.031,0.014900196168837646,0.0,0.0,0.06138785158018659,1.021292475243513,0.02467320034664809
0.032,0.014934933010942909,0.0,0.0,0.05916264985834866,1.0197901045773914,0.02240613666309589
0.033,0.014969669853048173,0.0,0.0,0.05701813355325677,1.0183473589802035,0.020400185336302907
0.034,0.015004406695153436,0.0,0.0,0.05495134535406678,1.0169553192361294,0.018625171816137008
0.035,0.015039143537258699,0.0,0.0,0.052959498442487055,1.0156072008988404,0.01705454066171737
0.036000000000000004,0.015073880379363962,0.0,0.0,0.051039876100127106,1.014296934618991,0.015664764639753644
0.037,0.015108617221469226,0.0,0.0,0.04918981591378845,1.0130190935278993,0.014434997616025224
0.038,0.015143354063574489,0.0,0.0,0.047406845284668354,1.0117696796568818,0.013346883323524837
0.039,0.015178090905679752,0.0,0.0,0.04568853167254842,1.0105449515609968,0.01238412781407232
0.04,0.015212827747785014,0.0,0.0,0.04403248939135878,1.0093415086357473,0.011532285404259945
0.041,0.015247564589890277,0.0,0.0,0.042436484309666636,1.00815672934904,0.010778613287000995
0.042,0.015282301431995542,0.0,0.0,0.04089835861825101,1.006988330305135,0.010111825228323757
0.043000000000000003,0.015317038274100804,0.0,0.0,0.039416009643123785,1.0058342228050894,0.009521917549747787
0.044,0.015351775116206067,0.0,0.0,0.03798735243810803,1.0046924630394316,0.00900001444382335
0.045,0.01538651195831133,0.0,0.0,0.03661050741855301,1.0035617026586783,0.008538311620811988
0.046,0.015421248800416594,0.0,0.0,0.03528360384612982,1.0024406187217503,0.008129875897516844
0.047,0.015455985642521857,0.0,0.0,0.034004838990544226,1.0013280270502156,0.007768570256753373
0.048,0.01549072248462712,0.0,0.0,0.03277235891816777,1.0002227169895819,0.007448933483537298
0.049,0.015525459326732383,0.0,0.0,0.03158454660365113,0.9991239121847715,0.007166179972956002
0.05,0.015560196168837647,0.0,0.0,0.03043983378818763,0.99803092389389,0.006916068592437373
0.051000000000000004,0.01559493301094291,0.0,0.0,0.029336652212970642,0.9969430633750432,0.006694832391283106
0.052000000000000005,0.015629669853048173,0.0,0.0,0.02827348206468356,0.9958596987253977,0.006499137078446808
0.053,0.015664406695153437,0.0,0.0,0.027248802084884595,0.994780243655714,0.006326024312660676
0.054,0.015699143537258698,0.0,0.0,0.026261246477495347,0.993704278785866,0.006172894391710666
0.055,0.015733880379363963,0.0,0.0,0.025309519859270987,0.9926314559063296,0.006037448772826784
0.056,0.015768617221469224,0.0,0.0,0.024392326846966676,0.9915614268075814,0.005917646279422481
0.057,0.015803354063574488,0.0,0.0,0.023508422264307296,0.9904938757979801,0.005811681404149631
0.058,0.015838090905679753,0.0,0.0,0.02265652926604656,0.9894284899271611,0.005717948893544107
0.059000000000000004,0.015872827747785014,0.0,0.0,0.021835446558439,0.9883650110091897,0.005635033337410616
0.06,0.015907564589890278,0.0,0.0,0.02104413260777496,0.9873032780919688,0.005561693603567698
0.061,0.015942301431995543,0.0,0.0,0.020281545880344757,0.9862431302234014,0.005496826992894698
0.062,0.015977038274100804,0.0,0.0,0.01954664484243875,0.9851844064513902,0.005439454571720765
0.063,0.016011775116206068,0.0,0.0,0.01883838796034726,0.9841269458238381,0.005388707941252204
0.064,0.01604651195831133,0.0,0.0,0.01815583868055895,0.9830706318820414,0.00534382374780233
0.065,0.016081248800416593,0.0,0.0,0.01749795134266719,0.9820153223162413,0.005304118312549201
0.066,0.016115985642521858,0.0,0.0,0.016863894639505116,0.9809609463342892,0.005268997576619663
0.067,0.01615072248462712,0.0,0.0,0.01625284687324839,0.9799074364885763,0.005237934206691171
0.068,0.016185459326732383,0.0,0.0,0.01566398634607269,0.978854725331494,0.005210459957334822
0.069,0.016220196168837648,0.0,0.0,0.015096491360153674,0.9778027454154339,0.005186159361236679
0.07,0.01625493301094291,0.0,0.0,0.01454955042773345,0.9767514322078942,0.005164664418876347
0.07100000000000001,0.016289669853048173,0.0,0.0,0.014022431614761832,0.9757007437265585,0.005145651652207036
0.07200000000000001,0.016324406695153434,0.0,0.0,0.013514423785000963,0.974650642415602,0.0051288346414435325
0.073,0.0163591435372587,0.0,0.0005852672042599585,0.013024833122004755,0.9736025675443511,0.005113960484245463
0.074,0.016393880379363963,0.0,0.14343262654563987,0.012552992106847802,0.9733757648763122,0.005101167658233069
0.075,0.016428617221469224,0.0,0.21261244433767304,0.012098257261561078,0.9752668300879047,0.005090649621963538
0.076,0.01646335406357449,0.0,0.21686513326346296,0.011660008414304132,0.977763202342787,0.005081441342653577
0.077,0.016498090905679753,0.0,0.21694741749801963,0.011237647867109228,0.9802945947639848,0.0050731798989104016
0.078,0.016532827747785014,0.0,0.2168268320277159,0.010830599823405722,0.982827682067099,0.005065757192228098
0.079,0.01656756458989028,0.0,0.21670804722507558,0.010438308404270987,0.9853607546001387,0.005059087557520459
0.08,0.01660230143199554,0.0,0.21659885967298592,0.010060266025446372,0.9878937471690552,0.005053095032620505
0.081,0.016637038274100804,0.0,0.21649807946620656,0.00969589977441673,0.9904266696635745,0.005047709970091957
0.082,0.01667177511620607,0.0,0.21640425108440622,0.00934472157619677,0.9929595342087132,0.005042870915218545
0.083,0.01670651195831133,0.0,0.2163162268483544,0.009006281352437006,0.9954923503679082,0.0050385228956377915
0.084,0.016741248800416594,0.0,0.21623286027468314,0.008680129024787956,0.9980251277045966,0.005034616225662212
0.085,0.016775985642521855,0.0,0.21615300593803932,0.008365814514900136,1.0005578757822156,0.005031106037382431
0.08600000000000001,0.01681072248462712,0.0,0.21607562829754764,0.008062930077369416,1.0030906032523874,0.005027952318079253
0.08700000000000001,0.016845459326732384,0.0,0.21599994784679585,0.007771063545654339,1.005623316629926,0.005025118870004103
0.088,0.016880196168837645,0.0,0.2159250077948549,0.007489680076422889,1.00815602391889,0.005022571841752267
0.089,0.01691493301094291,0.0,0.21585029605147085,0.007218449926996009,1.010688729404723,0.005020282756470442
0.09,0.016949669853048174,0.0,0.2157753008820631,0.006957043354694656,1.0132214373728672,0.0050182258216689615
0.091,0.016984406695153435,0.0,0.2156995109081148,0.006705130616839783,1.0157541521087654,0.005016377697548737
0.092,0.0170191435372587,0.0,0.21562241511383964,0.0064623819707523445,1.0182868778978607,0.005014717282774365
0.093,0.01705388037936396,0.0,0.21554350285871807,0.006228467673753292,1.0208196190255951,0.005013225516663079
0.094,0.017088617221469225,0.0,0.21546226389620451,0.006003057983163579,1.023352379777412,0.005011885196795354
0.095,0.01712335406357449,0.0,0.21537818839841008,0.0057858231563041596,1.0258851644387539,0.0050106808110898324
0.096,0.01715809090567975,0.0,0.21529092957528567,0.005576476754489105,1.0284179759316627,0.005009598621910874
0.097,0.017192827747785015,0.0,0.21520050795361506,0.0053747241385885235,1.030950814100288,0.005008626179147417
0.098,0.017227564589890276,0.0,0.2151065082710645,0.005180218320121562,1.0334836824451574,0.005007752004238396
0.099,0.01726230143199554,0.0,0.2150087469539418,0.00499273144171683,1.0360165825264387,0.005006966328917286
0.1,0.017297038274100805,0.0,0.21490704069402566,0.004812035646002933,1.0385495159043003,0.005006260305659762
0.101,0.017331775116206066,0.0,0.21480120646554743,0.004637903075608478,1.0410824841389106,0.005005625928203072
0.10200000000000001,0.01736651195831133,0.0,0.2146910615427952,0.004470105873162075,1.0436154887904379,0.005005055958055861
0.10300000000000001,0.017401248800416595,0.0,0.2145764235183111,0.004308416181292329,1.0461485314190506,0.005004543856643499
0.10400000000000001,0.017435985642521856,0.0,0.21445711032217943,0.004152606142627848,1.048681613584917,0.0050040837227466805
0.105,0.01747072248462712,0.0,0.21433294024201197,0.004002447899797242,1.0512147368482057,0.00500367023490391
0.106,0.01750545932673238,0.0,0.21420377781544686,0.0038577364213420733,1.0537479023834468,0.005003298660920228
0.107,0.017540196168837646,0.0,0.21406966918604814,0.0037182830826451756,1.056281109840838,0.005002964771777427
0.108,0.01757493301094291,0.0,0.21393045771747976,0.003583836746302943,1.0588143605774392,0.005002664598040924
0.109,0.01760966985304817,0.0,0.2137860794541124,0.0034542403787403485,1.0613476551736925,0.005002394791112736
0.11,0.017644406695153436,0.0,0.2136364707224431,0.0033293369463823627,1.0638809942100407,0.005002152317718635
0.111,0.017679143537258697,0.0,0.21348156813937877,0.0032089694156539578,1.0664143782669266,0.0050019344327178385
0.112,0.01771388037936396,0.0,0.21332130862114168,0.0030929807529801053,1.0689478079247925,0.005001738653959571
0.113,0.017748617221469226,0.0,0.21315562939156546,0.002981213924785777,1.0714812837640812,0.005001562739065341
0.114,0.017783354063574487,0.0,0.21298446799114784,0.0028735118974959444,1.0740148063652355,0.00500140466402008
0.115,0.01781809090567975,0.0,0.21280776228603462,0.0027697176375355795,1.0765483763086974,0.005001262603459754
0.116,0.017852827747785016,0.0,0.21262726185813322,0.0026696956343357217,1.0790819788905144,0.005001134941754156
0.117,0.017887564589890277,0.0,0.212443678949828,0.002573351003782698,1.0816156081397823,0.0050010202708810104
0.11800000000000001,0.01792230143199554,0.0,0.21224542132811794,0.0024804364166380742,1.084149361992479,0.005000917131017661
0.11900000000000001,0.017957038274100806,0.0,0.21203607685532525,0.002390850155925242,1.0866832103066983,0.005000824388732124
0.12,0.017991775116206067,0.0,0.2118192274537293,0.002304490504667593,1.0892171229405354,0.0050007410156992895
0.121,0.01802651195831133,0.0,0.21159844831549243,0.002221255745888517,1.0917510697520847,0.0050006660798210395
0.122,0.018061248800416593,0.0,0.21137730741214394,0.002141044162611405,1.0942850205994405,0.005000598736996225
0.123,0.018095985642521857,0.0,0.211159365304549,0.0020637540378596504,1.0968189453406973,0.005000538223503422
0.124,0.018130722484627118,0.0,0.21094817525252604,0.001989283654656643,1.09935281383395,0.005000483848960639
0.125,0.018165459326732383,0.0,0.21074728362509831,0.0019175312960257739,1.1018865959372923,0.0050004349898274065
0.126,0.018200196168837647,0.0,0.21056023061016943,0.0018483952449904351,1.1044202615088194,0.005000391083416009
0.127,0.018234933010942908,0.0,0.21039055122472905,0.0017817737845740175,1.1069537804066256,0.00500035162237986
0.128,0.018269669853048173,0.0,0.2102417766250347,0.0017175651977999126,1.1094871224888054,0.0050003161496483825
0.129,0.018304406695153437,0.0,0.21012653367935075,0.0016556806981393936,1.1120201803889167,0.005000284260787509
0.13,0.018339143537258698,0.0,0.2101110281268808,0.0015960679884992396,1.1145523918524238,0.0050002556090507745
0.131,0.018373880379363963,0.0,0.2101628475718862,0.0015385775031013372,1.1170840318683806,0.005000229833120067
0.132,0.018408617221469227,0.0,0.21028131253344196,0.0014831463210421662,1.1196151064134114,0.005000206650820781
0.133,0.018443354063574488,0.0,0.210465774643662,0.001429711521418206,1.1221456214641417,0.0050001858060881995
0.134,0.018478090905679753,0.0,0.210715615537516,0.0013782101833259364,1.124675582997196,0.005000167066768737
0.135,0.018512827747785017,0.0,0.21103024575410068,0.0013285793858618367,1.1272049969891995,0.005000150222581117
0.136,0.018547564589890278,0.0,0.21140910365006638,0.0012807562081223866,1.1297338694167773,0.005000135083228504
0.137,0.018582301431995542,0.0,0.2118516543248118,0.0012346777292040656,1.1322622062565542,0.005000121476652884
0.138,0.018617038274100804,0.0,0.21235738855708727,0.0011902810282033533,1.1347900134851552,0.00500010924742328
0.139,0.018651775116206068,0.0,0.21292582175397878,0.0011475031842167293,1.1373172970792051,0.005000098255249681
0.14,0.01868651195831133,0.0,0.21355649291115053,0.0011062812763406728,1.1398440630153293,0.0050000883736149
0.14100000000000001,0.018721248800416593,0.0,0.2142489635853196,0.0010665523836716638,1.1423703172701523,0.005000079488516816
0.14200000000000002,0.018755985642521858,0.0,0.2150031615110689,0.0010282645662207208,1.1448960629284122,0.005000071499756569
0.14300000000000002,0.01879072248462712,0.0,0.21582182106983838,0.0009913964071560923,1.1474212797622305,0.005000064323114148
0.14400000000000002,0.018825459326732383,0.0,0.2167038560154962,0.0009558327505760584,1.1499459798563114,0.005000057863310963
0.145,0.018860196168837648,0.0,0.2176491184198562,0.0009215361743673394,1.1524701675956077,0.005000052050564824
0.146,0.01889493301094291,0.0,0.2186574819416351,0.000888469256416653,1.1549938473650727,0.0050000468214823285
0.147,0.018929669853048173,0.0,0.21972884108800797,0.0008565945746107199,1.1575170235496597,0.00500004211852818
0.148,0.018964406695153434,0.0,0.22086311048172577,0.0008258747068362596,1.1600397005343215,0.00500003788953237
0.149,0.0189991435372587,0.0,0.22206022413531232,0.0007962722309799919,1.1625618827040114,0.005000034087233189
0.15,0.01903388037936396,0.0,0.22332013473097218,0.0007677497249286363,1.1650835744436827,0.0050000306688540355
0.151,0.019068617221469224,0.0,0.22464281290742902,0.0007402697665689122,1.1676047801382885,0.005000027595712077
0.152,0.01910335406357449,0.0,0.22602824655271783,0.0007137949337875395,1.1701255041727818,0.005000024832856881
0.153,0.01913809090567975,0.0,0.2274764401033252,0.0006882878044712378,1.172645750932116,0.00500002234873721
0.154,0.019172827747785014,0.0,0.22898741385005106,0.0006637109565067266,1.175165524801244,0.005000020114894212
0.155,0.01920756458989028,0.0,0.2305612032498198,0.0006400269677807255,1.177684830165119,0.00500001810567935
0.156,0.01924230143199554,0.0,0.23219785824396436,0.0006171984161799542,1.1802036714086945,0.005000016297995444
0.157,0.019277038274100804,0.0,0.23389734210436253,0.0005951904215363152,1.1827220537252896,0.005000014671259877
0.158,0.01931177511620607,0.0,0.2356592972928078,0.0005739775944720598,1.1852399849727264,0.005000013207632428
0.159,0.01934651195831133,0.0,0.23748383630579942,0.0005535295134994284,1.1877574693015625,0.0050000118905943365
0.16,0.019381248800416594,0.0,0.2393709273434786,0.0005338213093870975,1.190274512104611,0.005000010705600114
0.161,0.01941598564252186,0.0,0.24132054736665767,0.0005148281129037435,1.1927911187746856,0.005000009639478965
0.162,0.01945072248462712,0.0,0.24333268131537245,0.0004965250548180428,1.1953072947046002,0.0050000086803152445
0.163,0.019485459326732384,0.0,0.2454073213369789,0.000478887265898672,1.197823045287168,0.005000007817338039
0.164,0.019520196168837645,0.0,0.2475444660235344,0.0004618898769143074,1.2003383759152033,0.005000007040819346
0.165,0.01955493301094291,0.0,0.24974411651652864,0.00044550805279340317,1.2028532920059882,0.005000006341981847
0.166,0.01958966985304817,0.0,0.2520061570835733,0.0004297192723968237,1.2053677999205754,0.0050000057130091865
0.167,0.019624406695153435,0.0,0.25433061309347954,0.0004145024216998481,1.2078819049461615,0.005000005146898252
0.168,0.0196591435372587,0.0,0.2567174562177975,0.0003998374835232377,1.2103956128104754,0.005000004637361034
0.169,0.01969388037936396,0.0,0.2591666600064752,0.00038570444068775414,1.2129089292412456,0.0050000041787129105
0.17,0.019728617221469225,0.0,0.26167820002954767,0.0003720836245501203,1.2154218599594513,0.005000003765830273
0.171,0.01976335406357449,1.0,0.27169953934151436,0.01758656994693638,1.2178784324300753,0.005869642133589505
0.17200000000000001,0.01979809090567975,1.0,0.36652992133382234,0.035268979294744124,1.2197555300449878,0.013071512456341586
0.17300000000000001,0.019832827747785015,1.0,0.6712908017617262,0.052633123840744846,1.2206230464816892,0.03357140876779752
0.17400000000000002,0.01986756458989028,1.0,1.2042728882424127,0.06968473201526379,1.2209912546297623,0.0724322411385805
0.17500000000000002,0.01990230143199554,1.0,1.9327553137426978,0.08642942919589525,1.2212445130016294,0.13099160576431992
0.176,0.019937038274100802,1.0,2.8586152343883446,0.10287273951695435,1.2214381145107562,0.20614187221445412
0.177,0.019971775116206066,1.0,3.9820595603038442,0.1190200874077192,1.2215985846464283,0.29146665972977875
0.178,0.02000651195831133,1.0,5.2726377494199435,0.13487679917838308,1.221790595863908,0.3796102857798944
0.179,0.020041248800416592,1.0,6.6758059019147735,0.1504481086999896,1.2220851474629395,0.46439018301387164
0.18,0.020075985642521856,1.0,8.1143372792972,0.16573914976988344,1.2225565478474198,0.5418075390706839
0.181,0.02011072248462712,1.0,9.491728484884158,0.18075496815453573,1.223280949661151,0.6100019219675749
0.18181818181818182,0.0201391435372587,1.0,10.505765370323212,0.19283939095018635,1.2241044990153278,0.6586845956558299
