Time [s],Lmtc [m],STIM [ ],Fsee [N],Gamma [ ],Lcerel [ ],q [ ]
0.0,0.017639753877878292,1.0,10.831399229463015,0.7068000316874574,0.821170304688404,0.9545130889098647
0.0005,0.017594753877878292,0.0,10.57410872691983,0.6938732613513424,0.8208285961007789,0.9518101839125999
0.001,0.017549753877878292,0.0,10.323191968065643,0.6811829139284021,0.8204487320999292,0.9489471938220271
0.0015,0.017504753877878292,0.0,10.078491199851017,0.6687246653698481,0.8200311697431398,0.9459153664082263
0.002,0.017459753877878292,0.0,9.839849074703208,0.6564942709048663,0.819576401923014,0.9427056027873529
0.0025,0.017414753877878292,0.0,9.607108773888923,0.6444875631845518,0.819084957298355,0.9393084633756984
0.003,0.017369753877878293,0.0,9.380114114692025,0.6327004509520503,0.8185574003415489,0.935714177498252
0.0035,0.017324753877878293,0.0,9.15870969093852,0.6211289180285053,0.8179943309039212,0.9319126569597775
0.004,0.017279753877878293,0.0,8.94274096254476,0.6097690215453847,0.8173963843150674,0.927893513993909
0.0045000000000000005,0.017234753877878293,0.0,8.732054395623537,0.5986168908352153,0.816764230782079,0.9236460841789242
0.005,0.017189753877878293,0.0,8.526497551875304,0.5876687259683632,0.8160985753289822,0.9191594548735287
0.0055,0.017144753877878293,0.0,8.325919218926696,0.5769207965495544,0.8154001571406159,0.9144224995743517
0.006,0.017099753877878293,0.0,8.130169503700042,0.5663694403774617,0.8146697492862176,0.909423918870447
0.006500000000000001,0.017054753877878293,0.0,7.939099951766201,0.5560110622515432,0.8139081580261095,0.9041522883646337
0.007,0.017009753877878293,0.0,7.752563648550181,0.5458421327261066,0.8131162222640287,0.8985961141447059
0.0075,0.016964753877878293,0.0,7.570415533439159,0.5358591878021619,0.8122948100266925,0.8927438955091868
0.008,0.016919753877878294,0.0,7.392512283654995,0.5260588268372646,0.8114448205655138,0.8865841972771513
0.0085,0.01687475387787829,0.0,7.218712273838334,0.5164377107479462,0.810567185531104,0.8801057306325434
0.009000000000000001,0.01682975387787829,0.0,7.048875769115107,0.5069925612409184,0.8096628669213534,0.8732974420342673
0.0095,0.01678475387787829,0.0,6.882864998563729,0.4977201595554905,0.8087328565624364,0.8661486113466572
0.01,0.01673975387787829,0.0,6.720544225160194,0.4886173452059874,0.8077781755898193,0.8586489587442241
0.0105,0.01669475387787829,0.0,6.561779812671086,0.4796810147241659,0.8067998739292658,0.8507887600952875
0.011,0.01664975387787829,0.0,6.406440289964519,0.47090812040163255,0.8057990297778422,0.8425589703129464
0.011111111111111112,0.01663975387787829,0.0,6.372377854571313,0.46898183180480113,0.8055735895009649,0.8406802771476592
0.011611111111111112,0.016642122298930924,0.0,6.451294756922419,0.4604099723111159,0.8045818359344499,0.8320144626016124
0.012111111111111112,0.016644490719983553,0.0,6.527646947481072,0.45198957039222104,0.803634682910004,0.8230002479926463
0.012611111111111113,0.016646859141036186,0.0,6.601286247980013,0.4437232882029203,0.8027335046889459,0.8136420302450327
0.013111111111111113,0.01664922756208882,0.0,6.67217716863902,0.43560812623851036,0.8018780472465207,0.8039391609965241
0.013611111111111114,0.01665159598314145,0.0,6.740279319032764,0.4276413242920716,0.8010681649127999,0.7938925035292073
0.014111111111111114,0.01665396440419408,0.0,6.805550618457283,0.4198202542212191,0.8003037711968636,0.7835044076034714
0.014611111111111115,0.01665633282524671,0.0,6.867953864594193,0.4121421920607842,0.7995847434569272,0.7727784301222476
0.015111111111111115,0.016658701246299343,0.0,6.927444793347581,0.40460458074423766,0.7989110929668051,0.7617198501373785
0.015611111111111116,0.016661069667351976,0.0,6.983983328858916,0.3972048281513911,0.7982828028740684,0.7503353390322833
0.016111111111111118,0.016663438088404606,0.0,7.037529581773122,0.3899403885275428,0.7976998851197533,0.7386331390382533
0.016611111111111118,0.01666580650945724,0.0,7.08803981399316,0.38280884108350544,0.7971624365129494,0.7266232669360051
0.01711111111111112,0.01666817493050987,0.0,7.135475631756666,0.3758077001982959,0.7966705087672031,0.7143171153838677
0.01761111111111112,0.0166705433515625,0.0,7.179797828254933,0.36893459196994466,0.7962241952708055,0.7017277948192513
0.01811111111111112,0.016672911772615134,0.0,7.220967697042811,0.36218717922348365,0.7958236123483965,0.6888699779568421
0.01861111111111112,0.016675280193667767,0.0,7.258946953668791,0.3555631506102507,0.7954689002590948,0.6757598346394599
0.01911111111111112,0.016677648614720396,0.0,7.293696785378482,0.3490602557977143,0.7951602363212295,0.6624150501108903
0.01961111111111112,0.01668001703577303,0.0,7.325177845316154,0.34267630546947436,0.7948978349123406,0.6488547556990325
0.02011111111111112,0.016682385456825658,0.0,7.353372915360824,0.33640912060124056,0.7946816352780872,0.6350990137423
0.02061111111111112,0.01668475387787829,0.0,7.37829397684344,0.330256517116102,0.7945112070900416,0.6211685382343715
0.021111111111111122,0.016687122298930924,0.0,7.399935152939499,0.3242164113099142,0.7943863993072429,0.6070854520857522
0.021611111111111123,0.016689490719983553,0.0,7.418295029437104,0.3182867696665448,0.7943070313041257,0.5928727476279246
0.022111111111111123,0.016691859141036186,0.0,7.433376911353167,0.3124656082560485,0.7942728891664684,0.5785541361248948
0.022611111111111123,0.01669422756208882,0.0,7.445346301394141,0.30675097730739276,0.7942815691795846,0.5641515364274705
0.023111111111111124,0.01669659598314145,0.0,7.455250474709292,0.3011408683957956,0.7943186375965571,0.5496739464815377
0.023611111111111124,0.01669896440419408,0.0,7.462844777079506,0.29563336411604924,0.794387383761886,0.5351497194583715
0.024111111111111125,0.01670133282524671,0.0,7.467664134216202,0.2902265888013475,0.7944941176073558,0.5206108024754317
0.024611111111111125,0.016703701246299343,0.0,7.4691378842543825,0.2849186994039403,0.7946466033861218,0.5060907919070717
0.025111111111111126,0.016706069667351976,0.0,7.466545878430252,0.2797078875737058,0.7948546737487334,0.4916253169293674
0.025611111111111126,0.016708438088404606,0.0,7.458934148546548,0.2745923780767387,0.7951314072779126,0.47725298413641054
0.026111111111111127,0.01671080650945724,0.0,7.4450560198376765,0.2695704291833413,0.7954939785113848,0.46301590075056687
0.026611111111111127,0.01671317493050987,0.0,7.423302195791939,0.2646403287940207,0.795964694022679,0.4489602941550438
0.027111111111111127,0.0167155433515625,0.0,7.391554245534572,0.25980039695572466,0.7965731390891646,0.43513822702966864
0.027611111111111128,0.016717911772615134,0.0,7.34724807654662,0.25504898464463954,0.7973555412792972,0.4216061622545849
0.02811111111111113,0.016720280193667766,0.0,7.28739096666345,0.25038447286550025,0.7983548923477065,0.40842428622381655
0.02861111111111113,0.016722648614720396,0.0,7.209271822245064,0.24580527230583268,0.799611593923631,0.3956459385794686
0.02911111111111113,0.01672501703577303,0.0,7.1114974373788025,0.24130982260299413,0.8011493635699076,0.38330288217744185
0.02961111111111113,0.016727385456825658,0.0,6.9948218007462195,0.23689659200632587,0.8029633748676377,0.37139413985007763
0.03011111111111113,0.01672975387787829,0.0,6.8621324900742176,0.23256407675166424,0.8050193908995297,0.35988713701913083
0.03061111111111113,0.016732122298930924,0.0,6.717544226867494,0.22831080062867534,0.8072651518106411,0.3487313462952733
0.03111111111111113,0.016734490719983553,0.0,6.565077325522861,0.22413531440897283,0.8096481927891634,0.33787739088311103
0.03161111111111113,0.016736859141036186,0.0,6.407789904643412,0.22003619535636731,0.8121281870268448,0.32728932409150063
0.03211111111111113,0.01673922756208882,0.0,6.2479411137729866,0.21601204675759894,0.8146749582664718,0.3169421665268463
0.03261111111111113,0.016741595983141448,0.0,6.08716846772781,0.2120614974665592,0.8172662883401859,0.30681930773647603
0.03311111111111113,0.01674396440419408,0.0,5.9265902456974775,0.20818320220875755,0.8198867921489641,0.29691099351912936
0.03361111111111113,0.016746332825246714,0.0,5.766915522435029,0.20437583907770782,0.8225266318104748,0.28721270125868864
0.034111111111111134,0.016748701246299343,0.0,5.608583166248559,0.20063811033887252,0.82517969249866,0.2777231384296912
0.034611111111111134,0.016751069667351976,0.0,5.451905990640733,0.19696874239623322,0.827841532770576,0.26844220932990603
0.035111111111111135,0.016753438088404606,0.0,5.297145791481167,0.19336636716519112,0.8305082841134923,0.2593696090652965
0.035611111111111135,0.01675580650945724,0.0,5.144464346993103,0.18982987892869202,0.8331774985175022,0.25050661004459135
0.036111111111111135,0.01675817493050987,0.0,4.994026901831208,0.18635807494598333,0.8358465238350231,0.24185353232788667
0.036611111111111136,0.0167605433515625,0.0,4.845977279000803,0.18294980428090077,0.8385129105151433,0.23341057082550168
0.037111111111111136,0.016762911772615133,0.0,4.700432850889451,0.17960388566931113,0.8411745140734981,0.22517762333082955
0.03761111111111114,0.016765280193667766,0.0,4.557477439889975,0.1763191605812256,0.8438296436599554,0.2171545604959452
0.03811111111111114,0.016767648614720396,0.0,4.417195333472931,0.1730945106052446,0.8464764939225684,0.20934085256489499
0.03861111111111114,0.01677001703577303,0.0,4.279659615004265,0.1699288399020519,0.8491133474239291,0.20173569048430226
0.03911111111111114,0.016772385456825658,0.0,4.144931270358788,0.16682107539709462,0.8517385992116042,0.19433801791406113
0.03961111111111114,0.01677475387787829,0.0,4.013062387130709,0.16377014581234042,0.8543507075636638,0.18714645025438148
0.04011111111111114,0.016777122298930924,0.0,3.8840936110550017,0.1607750117774041,0.8569482487649676,0.18015941625324947
0.04061111111111114,0.016779490719983553,0.0,3.7580542413095905,0.1578346618017187,0.8595299265632314,0.17337516208936146
0.04111111111111114,0.016781859141036186,0.0,3.6349631146491497,0.15494809915435792,0.862094567070283,0.16679172069176365
0.04161111111111114,0.01678422756208882,0.0,3.5148308394971703,0.15211432660100865,0.8646410861356895,0.1604068626738517
0.04211111111111114,0.016786595983141448,0.0,3.3976574630099763,0.1493323807848934,0.8671685458050296,0.15421823917654995
0.04261111111111114,0.01678896440419408,0.0,3.283434291833328,0.1466013216716406,0.8696761308778653,0.1482233466233958
0.04311111111111114,0.016791332825246714,0.0,3.1721463420196954,0.1439202075139207,0.8721631095652095,0.1424194500622603
0.04361111111111114,0.016793701246299343,0.0,3.0637720647347813,0.1412881186457801,0.8746288479199491,0.1368036705958408
0.04411111111111114,0.016796069667351976,0.0,2.9582833328031244,0.13870416323920842,0.8770728199683846,0.13137301688266012
0.04461111111111114,0.016798438088404605,0.0,2.855649712308221,0.1361674688748795,0.8794945239681519,0.12612433440535628
0.04511111111111114,0.01680080650945724,0.0,2.755837139682919,0.1336771595911993,0.8818935152895993,0.12105428207315488
0.045611111111111144,0.01680317493050987,0.0,2.658808189036418,0.13123239671308587,0.8842694063816222,0.11615945055758051
0.046111111111111144,0.0168055433515625,0.0,2.5645256678223767,0.12883234839329114,0.8866217889359204,0.11143626797762851
0.046611111111111145,0.016807911772615133,0.0,2.472950839807045,0.12647619135051585,0.8889502749697239,0.10688104310478073
0.047111111111111145,0.016810280193667766,0.0,2.384043783917128,0.12416312822751895,0.8912544908595941,0.10249002050968309
0.047611111111111146,0.016812648614720396,0.0,2.297765364956334,0.12189237136081922,0.8935340309299385,0.09825934092311676
0.048111111111111146,0.01681501703577303,0.0,2.214076131304269,0.1196631469508293,0.8957884829511654,0.09418507929627884
0.04861111111111115,0.01681738545682566,0.0,2.1329363676159487,0.11747469514098674,0.8980174270988993,0.09026326054133761
0.04911111111111115,0.01681975387787829,0.0,2.054306167192599,0.11532626996451806,0.9002204343211999,0.08648987382045778
0.04961111111111115,0.016822122298930924,0.0,1.9781453894758154,0.11321713930718676,0.9023970676152415,0.08286088688210563
0.05011111111111115,0.016824490719983553,0.0,1.9044135052055131,0.11114658454830918,0.9045468865452001,0.079372259604567
0.05061111111111115,0.016826859141036186,0.0,1.8330693445826172,0.10911389978876086,0.9066694550095046,0.07601995642355378
0.05111111111111115,0.01682922756208882,0.0,1.7640709982004632,0.10711839224077895,0.908764345647079,0.07279995870353953
0.05161111111111115,0.016831595983141448,0.0,1.69737569714767,0.1051593810376526,0.9108311453564227,0.06970827317983357
0.05211111111111115,0.01683396440419408,0.0,1.6329397867596402,0.10323619927230301,0.9128694587044582,0.06674094477600356
0.05261111111111115,0.016836332825246714,0.0,1.570718669184772,0.10134819149582791,0.9148789126196462,0.06389406022858395
0.05311111111111115,0.016838701246299343,0.0,1.510666644374049,0.09949470261083815,0.9168591646610563,0.06116373754022438
0.05361111111111115,0.016841069667351976,0.0,1.4527368559898288,0.09767511853108224,0.9188099089218728,0.05854620263410238
0.05411111111111115,0.016843438088404605,0.0,1.3968822699365497,0.09588881836522414,0.9207308498522961,0.05603770444274349
0.05461111111111115,0.016845806509457238,0.0,1.3430546770114573,0.09413518264533818,0.9226217364875071,0.0536345440671695
0.05511111111111115,0.01684817493050987,0.0,1.2912044895394519,0.09241361942151152,0.9244823746082843,0.051333122205981366
0.05561111111111115,0.0168505433515625,0.0,1.2412828541899097,0.09072353276379233,0.9263125624493196,0.04912987899304439
0.05611111111111115,0.016852911772615133,0.0,1.1932400261553855,0.0890643459301172,0.9281121462757023,0.047021344985818184
0.056611111111111154,0.016855280193667766,0.0,1.1470252179407432,0.08743549853765667,0.9298810312179573,0.0450041389119593
0.057111111111111154,0.016857648614720395,0.0,1.1025871710911799,0.08583645250537161,0.9316191674031472,0.04307497335059385
0.057611111111111155,0.01686001703577303,0.0,1.0598760983810256,0.08426660662190813,0.9333264843400223,0.041230530355184786
0.058111111111111155,0.01686238545682566,0.0,1.018841746293179,0.08272551536248629,0.9350029607818888,0.039467770974777466
0.058611111111111155,0.01686475387787829,0.0,0.9794339906201303,0.08121261019006734,0.9366486074404641,0.037783557034411455
0.059111111111111156,0.016867122298930923,0.0,0.9416007114646917,0.07972725319844838,0.9382635520711793,0.03617475355754728
0.059611111111111156,0.016869490719983553,0.0,0.9052928697269326,0.07826916003251844,0.9398478517104167,0.034638714220427386
0.06011111111111116,0.016871859141036186,0.0,0.8704610963815418,0.07683764207195536,0.9414016216889993,0.033172374192767334
0.06061111111111116,0.01687422756208882,0.0,0.8370586941958084,0.0754324048364506,0.9429249185584464,0.03177319227469879
0.06111111111111116,0.016876595983141448,0.0,0.8050361951793369,0.07405277454929514,0.9444179604053987,0.030438281620906203
0.06161111111111116,0.01687896440419408,0.0,0.7743487368775781,0.07269851274762987,0.9458808292628869,0.029165286664461314
0.06211111111111116,0.016881332825246714,0.0,0.7449497457419728,0.07136922447117953,0.9473137302221086,0.027951746593242222
0.06261111111111116,0.016883701246299343,0.0,0.7167923352808694,0.07006426452744301,0.9487169413100591,0.02679502426472332
0.06311111111111116,0.016886069667351976,0.0,0.6898314468638285,0.06878304325353976,0.9500907232612653,0.025692625222851463
0.06361111111111116,0.01688843808840461,0.0,0.6640230541570603,0.06752523368098853,0.9514353529796299,0.024642381188310407
0.06411111111111116,0.016890806509457238,0.0,0.6393246197523564,0.06629042925463269,0.9527511024703328,0.023642106767719686
0.06461111111111116,0.01689317493050987,0.0,0.6156942848812912,0.06507820197027485,0.9540382755848451,0.0226896648664859
0.06511111111111116,0.0168955433515625,0.0,0.5930891521925351,0.06388815185693972,0.9552972929751914,0.021783016648581992
0.06561111111111116,0.016897911772615133,0.0,0.5714689054808738,0.06271986630022136,0.9565285226144825,0.0209201715850612
0.06611111111111116,0.016900280193667766,0.0,0.5507950327252951,0.06157294344175968,0.9577323118921118,0.02009921055663305
0.06661111111111116,0.016902648614720395,0.0,0.5310308388904671,0.06044700325755393,0.9589089831941776,0.01931829272979837
0.06711111111111116,0.016905017035773028,0.0,0.5121406047076223,0.059341652749227126,0.9600588737641883,0.018575630176305195
0.06761111111111116,0.01690738545682566,0.0,0.494087282707239,0.05825639092569928,0.9611824578521723,0.017869429403298904
0.06811111111111116,0.01690975387787829,0.0,0.4768393995083141,0.057190979746058426,0.9622799838120352,0.017198132491359933
0.06861111111111116,0.016912122298930923,0.0,0.46036362694988536,0.05614505640540848,0.9633518606880008,0.01656015562966696
0.06911111111111116,0.016914490719983556,0.0,0.4446280294029707,0.05511826560234817,0.9643984890670053,0.015953976148184685
0.06961111111111117,0.016916859141036186,0.0,0.4296014196670448,0.054110254708029895,0.9654202949350209,0.015378129711099253
0.07011111111111117,0.01691922756208882,0.0,0.41525407071719395,0.053120684155704936,0.9664176885030817,0.01483121329669354
0.07061111111111117,0.016921595983141448,0.0,0.4015610323243367,0.05214941463214104,0.9673908651185755,0.01431198112151057
0.07111111111111117,0.01692396440419408,0.0,0.38849281013081827,0.05119604692775021,0.9683403439197247,0.01381909554381448
0.07161111111111117,0.016926332825246714,0.0,0.37602150388262146,0.05026018546919522,0.9692666194394994,0.013351274949661669
0.07211111111111117,0.016928701246299343,0.0,0.36412033422534873,0.04934143468313891,0.9701701862108705,0.012907291350316014
0.07261111111111117,0.016931069667351976,0.0,0.3527636020384889,0.04843939899624404,0.9710515387668083,0.012485969021133693
0.07311111111111117,0.01693343808840461,0.0,0.3419267566445225,0.047553701840988456,0.9719111647399671,0.01208619187961146
0.07361111111111117,0.016935806509457238,0.0,0.3315874425603503,0.046684181139221084,0.9727494738897601,0.011706987698763823
0.07411111111111117,0.01693817493050987,0.0,0.3217236937501741,0.04583058482339855,0.9735669086474554,0.011347378839875476
0.07461111111111117,0.0169405433515625,0.0,0.31231416160553727,0.04499261179463585,0.9743639292458072,0.011006405762601637
0.07511111111111117,0.016942911772615133,0.0,0.3033383639081784,0.04416996095404796,0.9751409959175695,0.010683149425020045
0.07561111111111117,0.016945280193667766,0.0,0.2947766515546692,0.04336233120274988,0.9758985688954964,0.01037673016747669
0.07611111111111117,0.016947648614720395,0.0,0.28661047008254564,0.04256944564383408,0.9766370878921664,0.010086315326469017
0.07661111111111117,0.016950017035773028,0.0,0.2788226768414041,0.041791082378757394,0.9773569459885928,0.009811127279719348
0.07711111111111117,0.01695238545682566,0.0,0.2713962719782867,0.041026973416337945,0.9780585753464399,0.009550404967723223
0.07761111111111117,0.01695475387787829,0.0,0.26431490995633916,0.040276847676196964,0.9787424107466153,0.00930341975003961
0.07811111111111117,0.016957122298930923,0.0,0.25756290956672273,0.039540434077955676,0.9794088869700261,0.009069475500215597
0.07861111111111117,0.016959490719983556,0.0,0.2511252285454249,0.038817461788979685,0.9800584386491404,0.008847907616727789
0.07911111111111117,0.016961859141036185,0.0,0.24498781548846146,0.038107707936976064,0.9806914716802679,0.008638096016260772
0.07961111111111117,0.01696422756208882,0.0,0.2391372321862051,0.03741095568624644,0.9813083883428022,0.008439449599882125
0.08011111111111117,0.016966595983141448,0.0,0.23356036383570666,0.03672696026709831,0.9819096076532087,0.00825139576169432
0.08061111111111117,0.01696896440419408,0.0,0.22824462252032915,0.036055476909839235,0.9824955486279524,0.008073388300725435
0.08111111111111118,0.016971332825246713,0.0,0.22317792396313949,0.03539626084477675,0.9830666302834985,0.007904906475869127
0.08161111111111118,0.016973701246299343,0.0,0.21834868478724373,0.034749072898554764,0.983623270046985,0.007745455463967349
