Time [s],Lmtc [m],STIM [ ],Fsee [N],Gamma [ ],Lcerel [ ],q [ ]
0.0,0.019639143537258697,0.0,10.42459643197428,0.2193486992449653,1.1877555208324706,0.7129116599432638
0.001,0.019239143537258696,0.0,0.03406868943506682,0.21139677289366487,1.1822869329527395,0.6830233793986815
0.002,0.0188391435372587,0.0,0.0,0.20373314294746006,1.1716951463227818,0.6464475859409864
0.003,0.018439143537258697,0.0,0.0,0.19634733089218556,1.161123542347556,0.6081118420398304
0.004,0.018039143537258696,0.0,0.0,0.18922932907873785,1.150571963760769,0.5684378371475709
0.005,0.0176391435372587,0.0,0.0,0.18236931979392934,1.1400378557461526,0.5279101992400571
0.006,0.017239143537258698,0.0,0.0,0.17575804949521523,1.1295190980255012,0.4870585377400188
0.007,0.016839143537258697,0.0,0.0,0.1693864706421008,1.1190138409540695,0.4464288916093259
0.008,0.0164391435372587,0.0,0.0,0.16324587923819656,1.1085214566706096,0.40655649885318745
0.009000000000000001,0.016039143537258698,0.0,0.0,0.15732791041771416,1.0980445769225646,0.36794019587932103
0.01,0.015639143537258697,0.0,0.0,0.15162449246067797,1.0875957845162574,0.3310245718066808
0.011,0.015239143537258698,0.0,0.0,0.14612784567977516,1.0772055718516795,0.2961872367821028
0.012,0.014839143537258698,0.0,0.0,0.14083047468975918,1.0669307643534196,0.2637302725506364
0.013000000000000001,0.014649669853048171,0.0,0.0,0.135725155371798,1.0568657173204627,0.23387767652656538
0.014,0.014670722484627119,0.0,0.0,0.13080492542924915,1.0471475441729048,0.20677152397762139
0.015,0.014691775116206066,0.0,0.0,0.12606307384469273,1.0379449407319852,0.18246306213479294
0.016,0.014712827747785014,0.0,0.0,0.12149313349938826,1.0294266510566388,0.16090349945235188
0.017,0.014733880379363962,0.0,0.0,0.11708887220828286,1.0217185211416542,0.14194513011419393
0.018000000000000002,0.014754933010942908,0.0,0.0,0.11284428353541512,1.0148746757708884,0.12536332322585336
0.019,0.014775985642521855,0.0,0.0,0.10875357871831111,1.0088763684401092,0.11089297101581108
0.02,0.014797038274100803,0.0,0.0,0.1048111797707393,1.0036524579103017,0.09826422379182544
0.021,0.01481809090567975,0.0,0.0,0.10101170509107324,0.9991054664497457,0.08722648840919128
0.022,0.014839143537258698,0.0,0.0,0.09734998070852677,0.9951333177372113,0.07755973934739198
0.023,0.014860196168837646,0.0,0.0,0.09382100817352634,0.9916406012098813,0.06907585734453094
0.024,0.014881248800416592,0.0,0.0,0.09041997422895141,0.9885440399872546,0.06161592823101778
0.025,0.01490230143199554,0.0,0.0,0.08714224237318315,0.9857738313282008,0.0550459318737267
0.026000000000000002,0.014923354063574487,0.0,0.0,0.08398334046583751,0.9832722936809833,0.04925228454438021
0.027,0.014944406695153435,0.0,0.0,0.08093896505249068,0.9809928018191467,0.04413823982164841
0.028,0.014965459326732383,0.0,0.0,0.07800495615387566,0.978897003501468,0.03962063802217288
0.029,0.014986511958311329,0.0,0.0,0.07517732321420105,0.9769545255383448,0.035627782032726346
0.03,0.015007564589890277,0.0,0.0,0.07245219565567325,0.9751399020587104,0.03209723471833729
0.031,0.015028617221469224,0.0,0.0,0.06982587243951313,0.9734331569560515,0.028974646013711962
0.032,0.015049669853048172,0.0,0.0,0.06729475837680178,0.9718172577324695,0.026212292478578612
0.033,0.01507072248462712,0.0,0.0,0.06485541165387204,0.9702786286153363,0.023768325701673754
0.034,0.015091775116206066,0.0,0.0,0.06250450170680028,0.9688057915851679,0.021605864541287878
0.035,0.015112827747785013,0.0,0.0,0.0602388126908433,0.9673891252516623,0.019692381198255948
0.036000000000000004,0.015133880379363961,0.0,0.0,0.058055282892102905,0.9660210018348276,0.01799921352738877
0.037,0.015154933010942909,0.0,0.0,0.05595089771050461,0.9646943760961426,0.016500947381947375
0.038,0.015175985642521856,0.0,0.0,0.05392280520389945,0.9634037557857582,0.0151751786313155
0.039,0.015197038274100804,0.0,0.0,0.051968262328415615,0.9621444935868408,0.01400208610509185
0.04,0.01521809090567975,0.0,0.0,0.050084558095906416,0.9609122380804886,0.012964077741720776
0.041,0.015239143537258698,0.0,0.0,0.04826913037084915,0.9597035413557897,0.012045626445494787
0.042,0.015260196168837645,0.0,0.0,0.04651954761145744,0.958515618917545,0.01123300804390967
0.043000000000000003,0.015281248800416593,0.0,0.0,0.04483340620526984,0.9573457897841046,0.01051403646540172
0.044,0.01530230143199554,0.0,0.0,0.04320835686523178,0.9561916718699242,0.0098779146483397
0.045,0.015323354063574487,0.0,0.0,0.04164222981608665,0.9550514894098171,0.009315127812506435
0.046,0.015344406695153434,0.0,0.0,0.04013290169646702,0.9539236105246957,0.008817237270652171
0.047,0.015365459326732382,0.0,0.0,0.038678314051953655,0.9528065599250098,0.008376768385692752
0.048,0.01538651195831133,0.0,0.0,0.03727639634993267,0.9516989111445837,0.007987081750151491
0.049,0.015407564589890278,0.0,0.0,0.03592531427123798,0.9505997170572504,0.0076423490117560975
0.05,0.015428617221469224,0.0,0.0,0.03462324992097322,0.9495080635232888,0.0073373948708270005
0.051000000000000004,0.015449669853048171,0.0,0.0,0.033368425525181385,0.9484230868640752,0.007067632267250735
0.052000000000000005,0.015470722484627119,0.0,0.0,0.032159062427202206,0.9473439693466198,0.006828990017213702
0.053,0.015491775116206067,0.0,0.0,0.030993472059290643,0.9462700284792501,0.006617873567545937
0.054,0.015512827747785014,0.0,0.0,0.029870153989726055,0.9452008056072827,0.00643112430038163
0.055,0.01553388037936396,0.0,0.0,0.028787607786787815,0.9441358420760343,0.00626593569221448
0.056,0.015554933010942908,0.0,0.0,0.027744333018755295,0.9430746792308214,0.0061198161850326335
0.057,0.015575985642521856,0.0,0.0,0.026738901948042387,0.9420169174698301,0.005990564495039719
0.058,0.015597038274100803,0.0,0.0,0.02576985067729057,0.9409621670708187,0.005876223634358503
0.059000000000000004,0.015618090905679751,0.0,0.0,0.024835904389903202,0.9399101699756994,0.00577507874388012
0.06,0.015639143537258697,0.0,0.0,0.023935844339001193,0.9388607066586382,0.005685612361618946
0.061,0.015660196168837646,0.0,0.0,0.023068451777705428,0.9378135575938006,0.00560647695521493
0.062,0.015681248800416592,0.0,0.0,0.02223250855674953,0.93676850353208,0.005536476871914102
0.063,0.01570230143199554,0.0,0.0,0.021426854027512127,0.9357253590326283,0.005474556106768865
0.064,0.015723354063574488,0.0,0.0,0.02065039823574209,0.9346839794515001,0.005419782778918473
0.065,0.015744406695153434,0.0,0.0,0.019902102127498225,0.9336442409121573,0.005371333073009884
0.066,0.015765459326732383,0.0,0.0,0.019180933061588235,0.9326060221683898,0.005328476217376398
0.067,0.01578651195831133,0.0,0.0036857674013617476,0.01848590823156859,0.9315774394176646,0.005290577068428404
0.068,0.01580756458989028,0.0,0.09142281459643058,0.017816080873038345,0.9312315630217032,0.00525782122572335
0.069,0.015828617221469225,0.0,0.16805616872610585,0.01717053750011974,0.9319289620197888,0.0052298070436052856
0.07,0.01584966985304817,0.0,0.1768344005032312,0.01654839772097926,0.9333813006485169,0.00520551631025573
0.07100000000000001,0.01587072248462712,0.0,0.17711965050115966,0.015948813031199674,0.9349132562577057,0.005183857345403597
0.07200000000000001,0.015891775116206066,0.0,0.17680855194455722,0.015370965885102388,0.936450727519999,0.0051644850346711495
0.073,0.015912827747785015,0.0,0.17649757145853506,0.014814067813403043,0.9379882002213437,0.005147154015237258
0.074,0.01593388037936396,0.0,0.1762236465021503,0.014277368786021845,0.9395253319885363,0.005131649304853649
0.075,0.015954933010942907,0.0,0.175984771543042,0.01376010774408363,0.9410621406274852,0.005117777702923835
0.076,0.015975985642521857,0.0,0.17577743023407455,0.013261604443726179,0.9425986581129736,0.005105367881347585
0.077,0.015997038274100803,0.0,0.17559821008400486,0.012781184686438171,0.9441349156149312,0.005094265966610637
0.078,0.016018090905679752,0.0,0.17544411672456306,0.012318268697747128,0.9456709405503849,0.005084335790616352
0.079,0.016039143537258698,0.0,0.17531166930299158,0.011872087247464752,0.9472067649592208,0.005075450891767004
0.08,0.016060196168837644,0.0,0.17519845189082117,0.011441988040305032,0.9487424110718164,0.005067500423227524
0.081,0.016081248800416593,0.0,0.17510266536256774,0.01102745052061205,0.9502778954439738,0.005060387275977795
0.082,0.01610230143199554,0.0,0.17502251531831228,0.010627954132729881,0.9518132346314948,0.005054024000436133
0.083,0.01612335406357449,0.0,0.1749562112448162,0.010242978321002603,0.9533484451901815,0.005048331914079632
0.084,0.016144406695153435,0.0,0.17490196576664735,0.009872002529774293,0.9548835436758358,0.005043240282835752
0.085,0.016165459326732384,0.0,0.17485799398840302,0.009514506203389029,0.9564185466442597,0.005038685571179826
0.08600000000000001,0.01618651195831133,0.0,0.17482251292679407,0.009169968786190887,0.9579534706512554,0.00503461075612099
0.08700000000000001,0.016207564589890276,0.0,0.1747946320025116,0.008837960133881693,0.9594883239608827,0.005030965713139303
0.088,0.016228617221469226,0.0,0.1747736702990162,0.008517934976323197,0.961023112893499,0.005027704142917054
0.089,0.01624966985304817,0.0,0.17475859199558708,0.008209447795637509,0.9625578470782886,0.005024785608954323
0.09,0.016270722484627118,0.0,0.17474870604022488,0.007912124506200833,0.9640925329402287,0.005022174445915148
0.091,0.016291775116206067,0.0,0.17474332171220333,0.007625591022389367,0.9656271769042962,0.005019838539399006
0.092,0.016312827747785013,0.0,0.17474174852635793,0.007349473258579316,0.9671617853954685,0.005017748997304592
0.093,0.016333880379363962,0.0,0.1747432961511448,0.0070833971291468754,0.9686963648387226,0.005015879848462987
0.094,0.01635493301094291,0.0,0.17474727434000684,0.006826988548468247,0.9702309216590354,0.005014207766650176
0.095,0.016375985642521858,0.0,0.17475299287670037,0.006579873430919631,0.9717654622813843,0.005012711818184514
0.096,0.016397038274100804,0.0,0.17476016846432127,0.006341745438913112,0.973299989343304,0.005011373620066899
0.097,0.01641809090567975,0.0,0.1747685751920678,0.006112209584153753,0.9748345049482079,0.005010176157273682
0.098,0.0164391435372587,0.0,0.17477782204644843,0.00589095022108776,0.9763690127360332,0.005009104611510004
0.099,0.016460196168837645,0.0,0.17478765098772883,0.0056776987688681845,0.9779035151088743,0.005008145890750082
0.1,0.016481248800416595,0.0,0.17479780395116876,0.005472186646648078,0.9794380144688258,0.0050072882068010315
0.101,0.01650230143199554,0.0,0.1748080228435159,0.005274145273580494,0.9809725132179823,0.005006520954556298
0.10200000000000001,0.016523354063574486,0.0,0.1748180495417315,0.005083306068818482,0.9825070137584382,0.005005834601282662
0.10300000000000001,0.016544406695153436,0.0,0.17482762589339057,0.004899400451515096,0.9840415184922882,0.005005220585242906
0.10400000000000001,0.016565459326732382,0.0,0.17483649371902898,0.004722159840823386,0.9855760298216265,0.005004671222992011
0.105,0.01658651195831133,0.0,0.17484458070718714,0.004551409204815326,0.9871105484188166,0.005004179899635424
0.106,0.016607564589890277,0.0,0.17485175964042615,0.004386806207298768,0.9886450754670998,0.005003740181443081
0.107,0.016628617221469223,0.0,0.1748578815389722,0.004228108451469867,0.9901796123521737,0.005003346600069268
0.108,0.016649669853048173,0.0,0.17486286143682153,0.004075132609772363,0.9917141598640974,0.005002994390441052
0.109,0.01667072248462712,0.0,0.17486661437365378,0.003927695354649994,0.9932487187929302,0.005002679257134555
0.11,0.016691775116206068,0.0,0.1748690553980201,0.0037856133585465,0.9947832899287313,0.0050023973314855304
0.111,0.016712827747785014,0.0,0.17487009957005886,0.0036487032939056165,0.99631787406156,0.005002145132195557
0.112,0.01673388037936396,0.0,0.17486966196512332,0.003516781833171084,0.9978524719814755,0.005001919529196774
0.113,0.01675493301094291,0.0,0.17486765767711346,0.00338966564878664,0.999387084478537,0.005001717710549758
0.114,0.016775985642521855,0.0,0.17486400182205383,0.0032671714131960227,1.0009217123428038,0.005001537152160653
0.115,0.016797038274100805,0.0,0.1748586095423269,0.003149115798842971,1.002456356364335,0.005001375590114876
0.116,0.01681809090567975,0.0,0.17485143268712552,0.0030353491564234724,1.0039910169919164,0.005001231039146746
0.117,0.016839143537258697,0.0,0.17484249812316252,0.0029257148780408027,1.005525693976572,0.005001101705030558
0.11800000000000001,0.016860196168837646,0.0,0.17483173075498012,0.0028200063331594435,1.0070603880183517,0.005000985920708967
0.11900000000000001,0.016881248800416592,0.0,0.1748191058430369,0.002718102937972547,1.0085950993490516,0.005000882290122863
0.12,0.01690230143199554,0.0,0.17480459868085135,0.002619884108673265,1.0101298282004672,0.005000789554367682
0.121,0.016923354063574488,0.0,0.1747881845961032,0.002525229261454747,1.0116645748043944,0.005000706579218314
0.122,0.016944406695153437,0.0,0.17476983895225556,0.002434017812510146,1.013199339392629,0.005000632343665522
0.123,0.016965459326732383,0.0,0.17474953714963726,0.0023461291780326136,1.014734122196967,0.005000565929395707
0.124,0.01698651195831133,0.0,0.17472725462700536,0.002261442774215301,1.0162689234492042,0.00500050651114918
0.125,0.01700756458989028,0.0,0.1747029668629621,0.002179838017251361,1.0178037433811364,0.005000453347895383
0.126,0.017028617221469224,0.0,0.17467664937725383,0.0021011943233339436,1.0193385822245593,0.005000405774766735
0.127,0.01704966985304817,0.0,0.17464827773233219,0.0020253911086562013,1.0208734402112687,0.0050003631956958465
0.128,0.01707072248462712,0.0,0.17461787784433297,0.0019524108014558705,1.0224083171046212,0.005000325131600865
0.129,0.017091775116206066,0.0,0.17458541798568966,0.0018820196662867215,1.0239432132050008,0.005000291036723727
0.13,0.017112827747785015,0.0,0.174550891253618,0.0018141408632513162,1.02547812858205,0.005000260505497853
0.131,0.01713388037936396,0.0,0.17451429128143048,0.0017486992963796956,1.0270130633007868,0.00500023317249894
0.132,0.01715493301094291,0.0,0.17447561174239223,0.0016856198697019003,1.0285480174262298,0.005000208707955635
0.133,0.017175985642521856,0.0,0.17443484635002843,0.0016248274872479708,1.0300829910233973,0.005000186814536224
0.134,0.017197038274100802,0.0,0.17439198885862323,0.0015662470530479478,1.0316179841573079,0.0050001672243926345
0.135,0.017218090905679752,0.0,0.17434703306373356,0.0015098034711318723,1.0331529968929796,0.005000149696444691
0.136,0.017239143537258698,0.0,0.17429997280233794,0.001455421645529784,1.034688029295431,0.005000134013888379
0.137,0.017260196168837647,0.0,0.17425080195355663,0.0014030264802717244,1.0362230814296804,0.005000119981912688
0.138,0.017281248800416593,0.0,0.17419951443881695,0.0013525428793877338,1.0377581533607463,0.00500010742561036
0.139,0.01730230143199554,0.0,0.1741461042224946,0.0013038957469078529,1.039293245153647,0.0050000961880686595
0.14,0.01732335406357449,0.0,0.17409056531223105,0.001257009986862122,1.040828356873401,0.005000086128627032
0.14100000000000001,0.017344406695153435,0.0,0.1740328920614128,0.001211814287700205,1.0423634885822088,0.005000077122060014
0.14200000000000002,0.017365459326732384,0.0,0.17397309078595544,0.0011682932977962886,1.0438986402310912,0.005000069066728788
0.14300000000000002,0.01738651195831133,0.0,0.17391115902114082,0.001126316022758163,1.0454338118533257,0.0050000618493843225
0.14400000000000002,0.017407564589890276,0.0,0.17384709501250206,0.0010858375741307615,1.046969003475955,0.005000055384703549
0.145,0.017428617221469225,0.0,0.17378089704723904,0.0010468130634590188,1.048504215126022,0.00500004959561201
0.146,0.01744966985304817,0.0,0.17371256345441083,0.0010091976022878662,1.05003944683057,0.005000044412548874
0.147,0.017470722484627117,0.0,0.17364209260527708,0.0009729463021622381,1.0515746986166419,0.00500003977278995
0.148,0.017491775116206067,0.0,0.17356948291332844,0.0009380142746270683,1.0531099705112805,0.005000035619824918
0.149,0.017512827747785013,0.0,0.17349473283445235,0.0009043566312272903,1.054645262541529,0.0050000319027852
0.15,0.017533880379363962,0.0,0.1734178408672347,0.0008719284835078374,1.0561805747344304,0.005000028575919019
0.151,0.017554933010942908,0.0,0.17333880555303155,0.0008406849430136435,1.0577159071170275,0.005000025598110415
0.152,0.017575985642521857,0.0,0.17325762547623033,0.0008105811212896418,1.0592512597163635,0.005000022932439113
0.153,0.017597038274100803,0.0,0.17317429926430886,0.000781572129880766,1.0607866325594812,0.005000020545778316
0.154,0.01761809090567975,0.0,0.17308882558823216,0.0007536130803319495,1.0623220256734236,0.005000018408427659
0.155,0.0176391435372587,0.0,0.17300120233389157,0.0007266690593088177,1.063857439092984,0.0050000164945033345
0.156,0.017660196168837645,0.0,0.17291142508469065,0.0007007484812976087,1.065392872874917,0.005000014783629199
0.157,0.017681248800416594,0.0,0.17281950113482658,0.0006757345543220521,1.0669283269668137,0.005000013249088604
0.158,0.01770230143199554,0.0,0.17272542981805503,0.0006516025946191805,1.0684638013911183,0.005000011873196953
0.159,0.017723354063574486,0.0,0.17262921051171456,0.0006283279184260268,1.0699992961702744,0.00500001063994483
0.16,0.017744406695153436,0.0,0.17253084263678267,0.0006058858419796234,1.0715348113267267,0.005000009534852593
0.161,0.01776545932673238,0.0,0.17243032565810798,0.0005842516815170031,1.0730703468829188,0.005000008544836043
0.162,0.01778651195831133,0.0,0.17232765908458836,0.0005634007532751987,1.0746059028612946,0.005000007658082497
0.163,0.017807564589890277,0.0,0.17222284246915998,0.0005433083734912426,1.0761414792842983,0.005000006863936601
0.164,0.017828617221469223,0.0,0.17211587540915163,0.0005239498584021678,1.0776770761743737,0.005000006152795247
0.165,0.017849669853048172,0.0,0.17200675754630107,0.000505300524245007,1.079212693553965,0.0050000055160110074
0.166,0.01787072248462712,0.0,0.1718954885669206,0.0004873356872567926,1.0807483314455162,0.00500000494580349
0.167,0.017891775116206068,0.0,0.17178206820214312,0.00047003066367455734,1.0822839898714713,0.005000004435178097
0.168,0.017912827747785014,0.0,0.17166649622793972,0.00045336076973533416,1.0838196688542743,0.005000003977851651
0.169,0.017933880379363963,0.0,0.17154877246540662,0.0004373013216761555,1.085355368416369,0.005000003568184405
0.17,0.01795493301094291,0.0,0.1714288967807695,0.00042182763573405427,1.0868910885801997,0.005000003201117974
0.171,0.017975985642521855,0.0,0.1713068690856976,0.00040691502814606284,1.08842682936821,0.005000002872118746
0.17200000000000001,0.017997038274100804,0.0,0.1711826893373086,0.0003925388151492142,1.0899625908028445,0.005000002577126361
0.17300000000000001,0.01801809090567975,0.0,0.1710582223667118,0.00037868194534052143,1.0914983553630986,0.0050000023126558655
0.17400000000000002,0.0180391435372587,0.0,0.17093522423987698,0.00036534640733693074,1.0930341065261822,0.005000002075910849
0.17500000000000002,0.018060196168837646,0.0,0.17080294121700357,0.00035247753361232503,1.0945699455175826,0.005000001863351972
0.176,0.018081248800416592,0.0,0.17066420756784456,0.0003400625998611949,1.0961058457450459,0.00500000167256833
0.177,0.01810230143199554,0.0,0.17052185347527582,0.00032808888177802997,1.0976417806163177,0.005000001501376416
0.178,0.018123354063574487,0.0,0.17037870461398283,0.00031654365505732075,1.0991777235391438,0.00500000134780043
0.179,0.018144406695153437,0.0,0.17023758196330407,0.0003054141953935576,1.1007136479212698,0.005000001210054087
0.18,0.018165459326732383,0.0,0.1701013018529444,0.0002946877784812307,1.1022495271704416,0.00500000108652383
0.181,0.01818651195831133,0.0,0.16997267624291215,0.0002843516800148303,1.1037853346944047,0.005000000975753363
0.182,0.018207564589890278,0.0,0.16985451323646034,0.00027439317568884677,1.1053210439009051,0.0050000008764294205
0.183,0.018228617221469224,0.0,0.1697496178268761,0.0002647995411977702,1.1068566281976886,0.005000000787368685
0.184,0.01824966985304817,0.0,0.1696607928778506,0.000255558052236091,1.1083920609925006,0.005000000707505778
