Time [s],Lmtc [m],STIM [ ],Fsee [N],Gamma [ ],Lcerel [ ],q [ ]
0.0,0.020139143537258698,0.0,10.40690759798473,0.18835668001723058,1.2242234503077976,0.6417316516994236
0.001,0.0194191435372587,0.0,0.0,0.18152834138173357,1.2164107556953367,0.6060857626123559
0.002,0.018699143537258697,0.0,0.0,0.17494761388471666,1.2056642917178084,0.5661451212367357
0.003,0.0179791435372587,0.0,0.0,0.16860535333794027,1.1949546705114817,0.5253922946580513
0.004,0.017259143537258697,0.0,0.0,0.16249303927403827,1.1842803017244123,0.4843678050678874
0.005,0.0165391435372587,0.0,0.0,0.15660240268861178,1.1736407011136407,0.4436266453992574
0.006,0.015819143537258697,0.0,0.0,0.1509252890788526,1.1630363585152015,0.403707760005469
0.007,0.015099143537258698,0.0,0.0,0.1454539905514518,1.1524729784543666,0.3651120321781959
0.008,0.014379143537258698,0.0,0.0,0.14018105273852244,1.1419649607128333,0.32828033310282684
0.009000000000000001,0.014164406695153436,0.0,0.0,0.13509927587997836,1.1315410916445363,0.29357958861694305
0.01,0.01420230143199554,0.0,0.0,0.1302017360275428,1.1212576183296206,0.2613003273874119
0.011,0.014240196168837647,0.0,0.0,0.12548175343785742,1.1112068826576385,0.2316529169076469
0.012,0.014278090905679752,0.0,0.0,0.12093288856861338,1.1015217257268302,0.20476479700895958
0.013000000000000001,0.014315985642521857,0.0,0.0,0.11654893679647729,1.092367353409314,0.18067527989494492
0.014,0.014353880379363962,0.0,0.0,0.112323924096223,1.0839085619363424,0.1593260683848272
0.015,0.014391775116206068,0.0,0.0,0.10825208477477806,1.0762670441963191,0.14056285936375826
0.016,0.014429669853048173,0.0,0.0,0.10432786518531814,1.0694912125119775,0.1241565746963477
0.017,0.014467564589890278,0.0,0.0,0.10054591490441467,1.063556697233069,0.10984024922244569
0.018000000000000002,0.014505459326732384,0.0,0.0,0.0969010762549621,1.058389417937437,0.0973449028856946
0.019,0.014543354063574489,0.0,0.0,0.09338837847638892,1.0538912268394216,0.08642223271949502
0.02,0.014581248800416594,0.0,0.0,0.09000302958152709,1.0499597083586598,0.07685453970520181
0.021,0.014619143537258699,0.0,0.0,0.08674041310468128,1.0465001196814423,0.06845613432860431
0.022,0.014657038274100805,0.0,0.0,0.08359608030857692,1.0434302651777465,0.06107026759140738
0.023,0.01469493301094291,0.0,0.0,0.08056574412327291,1.0406812890432227,0.05456469033295691
0.024,0.014732827747785015,0.0,0.0,0.07764526640433667,1.0381962158373192,0.048827243704476525
0.025,0.01477072248462712,0.0,0.0,0.07483067087521683,1.0359294412655662,0.04376243735991162
0.026000000000000002,0.014808617221469226,0.0,0.0,0.07211811478958625,1.0338433861239777,0.03928811585034381
0.027,0.014846511958311331,0.0,0.0,0.06950389997113157,1.0319078910293273,0.03533333214850705
0.028,0.014884406695153436,0.0,0.0,0.06698446101588476,1.0300983494661262,0.03183640314708809
0.029,0.01492230143199554,0.0,0.0,0.0645563645119909,1.028394790775931,0.02874348899175641
0.03,0.014960196168837647,0.0,0.0,0.062216291138480574,1.0267805660617586,0.026007372367086334
0.031,0.014998090905679752,0.0,0.0,0.05996106674925513,1.0252424607060049,0.023586640316480896
0.032,0.015035985642521857,0.0,0.0,0.05778758452266672,1.0237687366801407,0.02144471070500073
0.033,0.015073880379363962,0.0,0.0,0.055692913336106466,1.0223505126923662,0.019549453407294422
0.034,0.015111775116206068,0.0,0.0,0.053674184697735404,1.0209797731365844,0.017872411343933824
0.035,0.015149669853048173,0.0,0.0,0.051728629683983875,1.0196497719709805,0.01638844087523361
0.036000000000000004,0.015187564589890278,0.0,0.0,0.04985362217778855,1.0183551804681246,0.015075358561775451
0.037,0.015225459326732384,0.0,0.0,0.048046596061748964,1.0170911612382671,0.013913497955074591
0.038,0.01526335406357449,0.0,0.0,0.04630505286843596,1.0158534781675146,0.012885442717918777
0.039,0.015301248800416594,0.0,0.0,0.044626672193040694,1.0146389905036224,0.011975844835452644
0.04,0.015339143537258699,0.0,0.0,0.043009157455039075,1.013444657330071,0.011171071155142638
0.041,0.015377038274100805,0.0,0.0,0.04145024754090115,1.0122677066394654,0.010459032450567307
0.042,0.01541493301094291,0.0,0.0,0.03994785295548441,1.0111060714402307,0.009829077185182559
0.043000000000000003,0.015452827747785015,0.0,0.0,0.03849995207854441,1.0099579348404961,0.009271768490118244
0.044,0.01549072248462712,0.0,0.0,0.037104572466298016,1.00882160708674,0.008778740459643402
0.045,0.015528617221469226,0.0,0.0,0.03575972020119559,1.0076954404537468,0.0083425582326998
0.046,0.015566511958311331,0.0,0.0,0.03446361124370781,1.006578293660379,0.007956691075092932
0.047,0.015604406695153436,0.0,0.0,0.03321452662396953,1.0054691740719643,0.007615354889724779
0.048,0.01564230143199554,0.0,0.0,0.0320107473721156,1.00436708905383,0.0073134115953928415
0.049,0.015680196168837646,0.0,0.0,0.030850620588263294,1.0032711593405326,0.00704631617870922
0.05,0.01571809090567975,0.0,0.0,0.02973249452081182,1.0021805621337054,0.0068100357454249786
0.051000000000000004,0.01575598564252186,0.0,0.0,0.028654907869151307,1.001094741094207,0.006601029902409833
0.052000000000000005,0.015793880379363964,0.0,0.0,0.027616419449504482,1.0000131680837125,0.0064161571701785445
0.053,0.01583177511620607,0.0,0.0,0.026615594285763204,0.9989353202972492,0.006252629524652038
0.054,0.015869669853048173,0.0,0.0,0.025651085988909052,0.9978607743117026,0.006107986309343585
0.055,0.015907564589890278,0.0,0.0,0.02472145041896732,0.9967890530896445,0.005980030866092401
0.056,0.015945459326732383,0.0,0.0,0.023825509921291316,0.9957199022584695,0.005866849619017356
0.057,0.015983354063574488,0.0,0.0,0.022962086841234346,0.994653067445572,0.00576674213466493
0.058,0.016021248800416596,0.0,0.0,0.022130003524149722,0.9935882942783466,0.005678198614387507
0.059000000000000004,0.0160591435372587,0.0,0.0,0.021328092451371124,0.9925253334875538,0.005599880497534328
0.06,0.016097038274100806,0.0,0.0,0.0205552619052494,0.9914639876892234,0.005530607290359727
0.061,0.01613493301094291,0.0,0.0,0.01981037746093504,0.9904040506941424,0.005469328392591709
0.062,0.016172827747785015,0.0,0.0,0.01909249396747314,0.9893454065710235,0.005415126423804913
0.063,0.01621072248462712,0.0,0.0,0.018400666273908784,0.9882879393885797,0.0053671863741955135
0.064,0.016248617221469225,0.0,0.0,0.01773394922928707,0.9872315332155237,0.0053247847429363435
0.065,0.01628651195831133,0.0,0.0,0.017091401032700765,0.9861760732327242,0.005287279926470509
0.066,0.016324406695153434,0.0,0.0,0.01647213076126398,0.9851214662372721,0.005254105694460455
0.067,0.016362301431995543,0.0,0.0,0.0158753035990771,0.984067640441797,0.0052247624635124055
0.068,0.016400196168837648,0.0,0.0,0.015300123346248782,0.9830145348221446,0.005198808565566575
0.069,0.016438090905679752,0.0,0.0,0.014745795937745297,0.9819620714977869,0.0051758521083296845
0.07,0.016475985642521857,0.0,0.027960303850967396,0.014211562967478003,0.9810066102826805,0.005155612625827165
0.07100000000000001,0.016513880379363962,0.0,0.19825030962405163,0.013696698134157796,0.9816052453385659,0.005138644896229351
0.07200000000000001,0.016551775116206067,0.0,0.22601371040874257,0.013200499261254713,0.9841328487300179,0.005124577443811678
0.073,0.01658966985304817,0.0,0.2271883029584132,0.012722289626964978,0.9868855169414611,0.005112048139631463
0.074,0.01662756458989028,0.0,0.22702204076556928,0.012261417022331716,0.989649143327899,0.005100784025996168
0.075,0.016665459326732385,0.0,0.22680925897750998,0.011817253465441133,0.9924131502522631,0.00509065266860211
0.076,0.01670335406357449,0.0,0.22661092141981387,0.011389191127165322,0.995177039930703,0.005081539911079619
0.077,0.016741248800416594,0.0,0.2264270304461577,0.010976690664026997,0.997940812190018,0.005073344294447011
0.078,0.0167791435372587,0.0,0.22625563278648708,0.010579157537006393,1.0007044828646323,0.005065972881076793
0.079,0.016817038274100804,0.0,0.22609444554127114,0.010195951855380622,1.0034680705195598,0.005059340962804894
0.08,0.01685493301094291,0.0,0.22594207420449022,0.009826609115943283,1.006231586480801,0.005053375355525641
0.081,0.016892827747785014,0.0,0.22579712670322435,0.009470664815487974,1.0089950420743559,0.005048009746658004
0.082,0.016930722484627122,0.0,0.22565821315057513,0.009127654450808296,1.0117584486262257,0.005043184104979711
0.083,0.016968617221469227,0.0,0.22552394564104752,0.008797113518697846,1.0145218174624104,0.0050388441345649345
0.084,0.01700651195831133,0.0,0.22539293808834485,0.008478577515950225,1.0172851599089112,0.005034940770283724
0.085,0.017044406695153436,0.0,0.2252638061055157,0.008171581939359027,1.020048487291728,0.005031429712400738
0.08600000000000001,0.01708230143199554,0.0,0.22513608374154076,0.007875755148102957,1.0228118034187947,0.005028272063777197
0.08700000000000001,0.017120196168837646,0.0,0.22500885710597154,0.007590587252053123,1.0255751157767257,0.005025431103570934
0.088,0.01715809090567975,0.0,0.22488144585539704,0.007315720747569481,1.0283384299444278,0.0050228753743074275
0.089,0.01719598564252186,0.0,0.22475325555231443,0.007050815213508942,1.0311017508020917,0.005020576552803253
0.09,0.017233880379363964,0.0,0.22462369244045804,0.0067955302287284304,1.0338650832299068,0.0050185089898841665
0.091,0.01727177511620607,0.0,0.2244921634596542,0.00654952537208487,1.0366284321080632,0.005016649478874066
0.092,0.017309669853048174,0.0,0.2243580762681563,0.006312460222435179,1.0393918023167514,0.005014977041613856
0.093,0.01734756458989028,0.0,0.2242208392733237,0.006083994358636281,1.0421551987361612,0.005013472730975129
0.094,0.017385459326732383,0.0,0.22408006857673832,0.005863858111047795,1.0449186245458113,0.0050121199167758035
0.095,0.017423354063574488,0.0,0.22393555048435435,0.00565169168139521,1.0476820815304253,0.005010902969167871
0.096,0.017461248800416593,0.0,0.2237868714425822,0.005447140294749779,1.0504455731216142,0.00500980785940554
0.097,0.0174991435372587,0.0,0.22363380980805525,0.005249966233100365,1.0532091011774858,0.005008822604668945
0.098,0.017537038274100806,0.0,0.2234761443737392,0.005059931778435833,1.0559726675561476,0.005007936336690404
0.099,0.01757493301094291,0.0,0.22331365439227946,0.004876799212745044,1.0587362741157067,0.005007139207207304
0.1,0.017612827747785016,0.0,0.22314611959956696,0.004700330818016862,1.0614999227142712,0.005006422300362784
0.101,0.01765072248462712,0.0,0.22297332024047412,0.0045302888762401485,1.0642636152099478,0.00500577755166093
0.10200000000000001,0.017688617221469225,0.0,0.2227950370947472,0.004366435669403769,1.0670273534608448,0.005005197673095466
0.10300000000000001,0.01772651195831133,0.0,0.22261105150493063,0.004208533479496585,1.069791139325069,0.005004676084083656
0.10400000000000001,0.017764406695153438,0.0,0.22242114540477032,0.00405634458850746,1.0725549746607281,0.0050042068478501475
0.105,0.017802301431995543,0.0,0.22222537723108435,0.003909719140778834,1.0753188590488734,0.005003784885088467
0.106,0.017840196168837648,0.0,0.22202357002192752,0.0037683623558495954,1.078082794015598,0.005003405156492456
0.107,0.017878090905679753,0.0,0.22181560840196676,0.003632084194147537,1.0808467805830335,0.005003063438927077
0.108,0.017915985642521857,0.0,0.22160143990800998,0.0035007253553589576,1.0836108192573912,0.005002755991572794
0.109,0.017953880379363962,0.0,0.22138101246247585,0.003374126539170157,1.0863749105448819,0.005002479421986578
0.11,0.017991775116206067,0.0,0.22115427438222424,0.0032521284452674344,1.0891390549517164,0.00500223065649088
0.111,0.018029669853048172,0.0,0.2209211743873491,0.0031345717733370884,1.0919032529841053,0.005002006912745583
0.112,0.018067564589890277,0.0,0.22068166161008623,0.003021297223065418,1.0946675051482595,0.005001805674378682
0.113,0.018105459326732385,0.0,0.22043568560385202,0.0029121454941387227,1.09743181195039,0.005001624667555332
0.114,0.01814335406357449,0.0,0.22018319635224423,0.0028069572862433004,1.1001961738967077,0.005001461839369059
0.115,0.018181248800416595,0.0,0.21992414427844825,0.002705573299065452,1.1029605914934228,0.0050013153379430495
0.116,0.0182191435372587,0.0,0.2196774792827519,0.0026078964137723885,1.1057249075237845,0.0050011835836296535
0.117,0.018257038274100804,0.0,0.21950278352865427,0.002513726426737766,1.1084886269677545,0.0050010649976711665
0.11800000000000001,0.01829493301094291,0.0,0.21940325763446883,0.002422940450457164,1.1112517225266196,0.0050009582696855775
0.11900000000000001,0.018332827747785017,0.0,0.21937888164900082,0.0023354322041723727,1.1140141939416304,0.005000862233693052
0.12,0.018370722484627122,0.0,0.21942967420148204,0.002251095407125184,1.1167760409540377,0.005000775832195976
0.121,0.018408617221469227,0.0,0.2195556925551944,0.0021698237785573874,1.1195372633050926,0.00500069810697017
0.122,0.018446511958311332,0.0,0.21975703266071947,0.0020915110377107736,1.1222978607360459,0.005000628190533503
0.123,0.018484406695153437,0.0,0.22003382920933248,0.0020160509038271344,1.1250578329881484,0.005000565298253548
0.124,0.01852230143199554,0.0,0.2203862556864939,0.0019433370961482602,1.1278171798026508,0.005000508721057112
0.125,0.018560196168837646,0.0,0.2208145244251504,0.001873263333915942,1.130575900920804,0.005000457818705718
0.126,0.01859809090567975,0.0,0.22131888665930163,0.0018057233363719706,1.133333996083859,0.005000412013602367
0.127,0.018635985642521856,0.0,0.22189819879271086,0.0017406828932746046,1.136091476875836,0.005000370834251565
0.128,0.01867388037936396,0.0,0.22255284787008695,0.001677964803658921,1.1388483425084714,0.005000333756784509
0.129,0.01871177511620607,0.0,0.22328282293919138,0.001617486860524362,1.1416045957837806,0.005000300373991814
0.13,0.018749669853048174,0.0,0.224087966996526,0.001559181710409485,1.144360240992237,0.005000270325594935
0.131,0.01878756458989028,0.0,0.22496815609257512,0.0015029819998528472,1.1471152824243145,0.005000243284423915
0.132,0.018825459326732383,0.0,0.2259232984730387,0.0014488203753930061,1.1498697243704865,0.005000218953653775
0.133,0.01886335406357449,0.0,0.2269533337262827,0.0013966294835685194,1.152623571121227,0.005000197064239249
0.134,0.018901248800416597,0.0,0.22805823193694658,0.0013463419709179442,1.1553768269670093,0.005000177372537047
0.135,0.0189391435372587,0.0,0.2292379928454755,0.0012978904839798379,1.1581294961983073,0.005000159658105122
0.136,0.018977038274100806,0.0,0.23049264501388747,0.0012512076692927582,1.1608815831055947,0.0050001437216687416
0.137,0.01901493301094291,0.0,0.2318222449976834,0.0012062261733952625,1.1636330919793452,0.00500012938324349
0.138,0.019052827747785016,0.0,0.2332268765234309,0.001162878642825908,1.1663840271100325,0.005000116480405692
0.139,0.01909072248462712,0.0,0.23470664967299032,0.001121097724123252,1.1691343927881301,0.005000104866701065
0.14,0.019128617221469225,0.0,0.23626126972824943,0.0010808522198538532,1.1718841967489377,0.005000094420292234
0.14100000000000001,0.01916651195831133,0.0,0.2378903948994771,0.0010420708742602237,1.1746334472533482,0.005000085019375974
0.14200000000000002,0.019204406695153435,0.0,0.2395942985055593,0.0010046637325778175,1.1773821478035322,0.005000076550058297
0.14300000000000002,0.019242301431995543,0.0,0.2413728793732793,0.0009685911751683785,1.1801303050561078,0.005000068922387204
0.14400000000000002,0.019280196168837648,0.0,0.24322605340612183,0.0009338135823936504,1.1828779256676927,0.005000062054565608
0.145,0.019318090905679753,0.0,0.2451537523975559,0.0009002913346153777,1.1856250162949047,0.005000055872282684
0.146,0.019355985642521858,0.0,0.24715592285815474,0.0008679848121953024,1.1883715835943618,0.005000050308092037
0.147,0.019393880379363963,0.0,0.24923252485802205,0.000836854395495169,1.1911176342226817,0.005000045300834186
0.148,0.019431775116206067,0.0,0.25138353088337184,0.0008068604648767213,1.193863174836482,0.005000040795101011
0.149,0.019469669853048172,0.0,0.25360892470799945,0.0007779634007017028,1.196608212092381,0.00500003674073979
0.15,0.01950756458989028,0.0,0.2559087002793233,0.0007501235833318575,1.1993527526469965,0.005000033092394591
0.151,0.019545459326732385,0.0,0.2582828606190285,0.0007233013931289287,1.2020968031569461,0.005000029809082821
0.152,0.01958335406357449,0.0,0.2607314167384436,0.0006974572104546605,1.204840370278848,0.005000026853804813
0.153,0.019621248800416595,0.0,0.26325438656848693,0.0006725514156707965,1.2075834606693194,0.005000024193184415
0.154,0.0196591435372587,0.0,0.26585179390421493,0.0006485443891390801,1.2103260809849785,0.005000021797138627
0.155,0.019697038274100805,0.0,0.2685235936251896,0.0006253975911355685,1.2130682384361142,0.005000019638682967
0.156,0.01973493301094291,1.0,0.27518851700101177,0.014845783939959119,1.21578077023306,0.005501216708422437
0.157,0.019772827747785014,1.0,0.3490098630306977,0.03257752452615017,1.218027993348756,0.011225030954815307
0.158,0.01981072248462712,1.0,0.6213497155030585,0.04999011241165006,1.2192534704927165,0.029192242747130462
0.159,0.019848617221469227,1.0,1.1480119409016083,0.0670892920230934,1.2198119823902769,0.06489340397629727
0.16,0.019886511958311332,1.0,1.891292919656489,0.0838807044028798,1.22021023809473,0.12035823891000218
0.161,0.019924406695153437,1.0,2.838686885142036,0.10036988901138696,1.220563299077599,0.19320157674907257
0.162,0.019962301431995542,1.0,3.993328624725123,0.11656228563723067,1.2208860603662737,0.27742008537949825
0.163,0.020000196168837647,1.0,5.324307393159797,0.13246323572930577,1.2212428786883347,0.3656590822327942
0.164,0.02003809090567975,1.0,6.765730736672694,0.14807798607096734,1.2217199938939942,0.4514556818219304
0.165,0.02007598564252186,1.0,8.225352826099224,0.16341168719015725,1.2224054263299344,0.530436494630203
0.166,0.020113880379363965,1.0,9.596945573444192,0.17846939747277382,1.2233786246803304,0.6004056163660682
0.16666666666666666,0.0201391435372587,1.0,10.416959891756596,0.18835699984414833,1.2242113290861083,0.6417207021042617
