Time [s],Lmtc [m],STIM [ ],Fsee [N],Gamma [ ],Lcerel [ ],q [ ]
0.0,0.019639143537258697,0.0,10.55146690149765,0.21456698335093385,1.1876030936417319,0.6981511222072205
0.001,0.019189143537258698,0.0,0.0,0.20678841379068771,1.1815853085420287,0.6669142352805209
0.002,0.018739143537258696,0.0,0.0,0.1992918755112657,1.1709906972065913,0.6294925886837237
0.003,0.018289143537258697,0.0,0.0,0.19206716290839423,1.1604188850570343,0.5904922426380813
0.004,0.017839143537258698,0.0,0.0,0.18510415570697566,1.1498670627883782,0.5503633241272857
0.005,0.0173891435372587,0.0,0.0,0.17839369901912525,1.1393332901525062,0.5096160018019692
0.006,0.016939143537258696,0.0,0.0,0.17192663795695828,1.1288156269013003,0.46879104822397366
0.007,0.016489143537258697,0.0,0.0,0.16569396183885957,1.1183125085556518,0.42843239359948937
0.008,0.016039143537258698,0.0,0.0,0.15968723789494774,1.1078246834465844,0.38906252248627554
0.009000000000000001,0.015589143537258696,0.0,0.0,0.15389828789038604,1.0973580339963738,0.3511574598278719
0.01,0.015139143537258697,0.0,0.0,0.14831920333856352,1.0869300184337156,0.3151308077208656
0.011,0.014689143537258698,0.0,0.0,0.14294238828083225,1.0765826829388268,0.28132797688464956
0.012,0.014660196168837646,0.0,0.0,0.13776050386088623,1.0663877768909382,0.2500156360877836
0.013000000000000001,0.01468388037936396,0.0,0.0,0.132766484030501,1.0564588726197415,0.22138179530954977
0.014,0.014707564589890277,0.0,0.0,0.12795351778484534,1.046949919087324,0.19552919780283284
0.015,0.014731248800416593,0.0,0.0,0.1233150417654846,1.0380346129887517,0.1724650713980088
0.016,0.014754933010942908,0.0,0.0,0.11884472791086442,1.0298681615474699,0.15209534517997536
0.017,0.014778617221469224,0.0,0.0,0.11453648270089742,1.0225452555071066,0.13423335690477745
0.018000000000000002,0.01480230143199554,0.0,0.0,0.11038442863450959,1.0160865567249087,0.11863188289954309
0.019,0.014825985642521855,0.0,0.0,0.10638290308048924,1.010446360909084,0.10501970177030408
0.02,0.014849669853048171,0.0,0.0,0.10252644876932662,1.0055386121967544,0.09313345439826863
0.021,0.014873354063574488,0.0,0.0,0.09880980828669393,1.0012617260122445,0.08273557894855152
0.022,0.014897038274100802,0.0,0.0,0.09522791057767277,0.9975152615141294,0.07362039986787544
0.023,0.014920722484627119,0.0,0.0,0.09177587133608035,0.9942089877267497,0.06561344375711066
0.024,0.014944406695153435,0.0,0.0,0.08844898459696554,0.9912658976960564,0.05856758396606676
0.025,0.01496809090567975,0.0,0.0,0.08524270565493869,0.9886213568070084,0.05235836476598438
0.026000000000000002,0.014991775116206066,0.0,0.0,0.08215267372408126,0.9862236343948729,0.04688035634345305
0.027,0.015015459326732383,0.0,0.0,0.07917466312040293,0.9840294376336087,0.042043101186746756
0.028,0.015039143537258697,0.0,0.0,0.07630462101657666,0.9820046541458488,0.03776893611163203
0.029,0.015062827747785014,0.0,0.0,0.07353862782097648,0.9801210123720366,0.03399046571877658
0.03,0.01508651195831133,0.0,0.0,0.07087291516642423,0.9783558450544014,0.030649075226359297
0.031,0.015110196168837645,0.0,0.0,0.06830384080862607,0.97669032548873,0.027693468361216438
0.032,0.015133880379363961,0.0,0.0,0.065827916215396,0.9751094636179312,0.025078721320984675
0.033,0.015157564589890277,0.0,0.0,0.06344173916962145,0.9736001578566418,0.022765220053920773
0.034,0.015181248800416592,0.0,0.0,0.06114208310477872,0.9721523353436504,0.02071818122144247
0.035,0.015204933010942908,0.0,0.0,0.05892579670847234,0.9707570164162668,0.0189068285847536
0.036000000000000004,0.015228617221469225,0.0,0.0,0.05678984777260967,0.96940676156572,0.017303996609322355
0.037,0.01525230143199554,0.0,0.0,0.05473135350160138,0.9680956611209091,0.015885718773612147
0.038,0.015275985642521856,0.0,0.0,0.05274748198536457,0.9668182466900722,0.01463073746913206
0.039,0.015299669853048172,0.0,0.0,0.05083552334863771,0.965570045358701,0.013520270913545289
0.04,0.015323354063574487,0.0,0.0,0.04899289809734193,0.9643474184302744,0.012537720801134536
0.041,0.015347038274100803,0.0,0.0,0.047217081822310575,0.9631470228257191,0.011668366668433967
0.042,0.01537072248462712,0.0,0.0,0.04550560363314552,0.9619658691419051,0.01089916277993177
0.043000000000000003,0.015394406695153434,0.0,0.0,0.043856200286081365,0.960801819696322,0.010218623355238828
0.044,0.01541809090567975,0.0,0.0,0.042266614843016345,0.9596527528182008,0.009616539665099427
0.045,0.015441775116206067,0.0,0.0,0.0407346532874393,0.9585167689723167,0.00908386935076877
0.046,0.015465459326732382,0.0,0.0,0.03925818690436508,0.9573922169177793,0.00861260742578187
0.047,0.015489143537258698,0.0,0.0,0.03783527280574489,0.9562779039650614,0.008195704763022671
0.048,0.015512827747785014,0.0,0.0,0.03646396810352992,0.9551726374246363,0.007826897152469241
0.049,0.015536511958311329,0.0,0.0,0.0351424154195846,0.9540753759084538,0.007500644374970684
0.05,0.015560196168837645,0.0,0.0,0.033868685458954384,0.9529850352980482,0.007212012170782878
0.051000000000000004,0.015583880379363962,0.0,0.0,0.032641123651711436,0.9519009487560899,0.006956683112301788
0.052000000000000005,0.015607564589890276,0.0,0.0,0.03145810674072798,0.9508224966191308,0.006730826805000056
0.053,0.01563124880041659,0.0,0.0,0.030318011468876256,0.949749059223723,0.006531041444983305
0.054,0.01565493301094291,0.0,0.0,0.029219267542871952,0.9486800702947236,0.006354316602601185
0.055,0.015678617221469224,0.0,0.0,0.028160299493402898,0.9476150018683269,0.006197980831342251
0.056,0.01570230143199554,0.0,0.0,0.027139694082351385,0.9465534764701287,0.006059686847176595
0.057,0.015725985642521857,0.0,0.0,0.026156116190617956,0.9454951848729373,0.005937360002454559
0.058,0.01574966985304817,0.0,0.0,0.02520823069910316,0.9444398178495607,0.00582915789368802
0.059000000000000004,0.01577335406357449,0.0,0.0,0.02429470845181831,0.943387070068733,0.005733446257253839
0.06,0.015797038274100804,0.0,0.0,0.023414284952656215,0.9423366874944447,0.005648781789237073
0.061,0.01582072248462712,0.0,0.0,0.022565779465138408,0.9412884721238094,0.00557389125585845
0.062,0.015844406695153433,0.0,0.0,0.02174804377870175,0.940242243156776,0.005507647103743286
0.063,0.01586809090567975,0.0,0.0,0.020959950648753233,0.9391978345527604,0.005449050288702219
0.064,0.015891775116206066,0.0,0.03256712878911673,0.020200429115616585,0.9383185205504533,0.005397503099195734
0.065,0.01591545932673238,0.0,0.15148088567755663,0.019468443351724013,0.9384205634784389,0.005353389860227174
0.066,0.0159391435372587,0.0,0.18565221864085427,0.018762995069764594,0.9398227293022977,0.005315968333931443
0.067,0.015962827747785013,0.0,0.18757278785768233,0.0180831222085483,0.941531848901761,0.0052828897190637485
0.068,0.015986511958311328,0.0,0.18714995430742526,0.017427897714553952,0.9432620677930451,0.005253297277240296
0.069,0.016010196168837646,0.0,0.18663432621181175,0.01679642715552505,0.9449931266211765,0.0052268011029442
0.07,0.01603388037936396,0.0,0.18616722973242122,0.016187858731676844,0.9467237541928294,0.005203076489743829
0.07100000000000001,0.01605756458989028,0.0,0.18575455400572397,0.01560133768328503,0.9484538957183651,0.005181832671831846
0.07200000000000001,0.016081248800416593,0.0,0.18539042196288788,0.015036081084719126,0.9501836026854839,0.005162810962816036
0.073,0.016104933010942908,0.0,0.18506974798167383,0.014491328266896569,0.9519129198094508,0.005145779360319822
0.074,0.016128617221469223,0.0,0.1847879909136828,0.01396641278876723,0.953641887179668,0.005130532017943953
0.075,0.01615230143199554,0.0,0.1845399660182773,0.01346047974922367,0.9553705509557184,0.005116878207835068
0.076,0.016175985642521856,0.0,0.18432199556080794,0.012972790469251509,0.9570989438554928,0.0051046501689511895
0.077,0.01619966985304817,0.0,0.1841313041265646,0.012502751701299303,0.958827090564119,0.005093700774006026
0.078,0.01622335406357449,0.0,0.18396512836510354,0.012049770197815609,0.9605550157667251,0.0050838974107836705
0.079,0.016247038274100803,0.0,0.1838207150836918,0.011613252711248983,0.9622827441484391,0.005075120655309575
0.08,0.016270722484627118,0.0,0.18369531954213214,0.01119260599404798,0.9640103003943887,0.005067263053037147
0.081,0.016294406695153436,0.0,0.18358620394864775,0.010787236798661158,0.9657377091897023,0.005060228000844083
0.082,0.01631809090567975,0.0,0.18349063615703645,0.010396551877537075,0.9674649952195075,0.0050539287229583825
0.083,0.016341775116206065,0.0,0.18340786638621281,0.010020087219345782,0.9691921651998435,0.005048289323598074
0.084,0.016365459326732383,0.0,0.18333612885720926,0.009657180778971604,0.9709192350978287,0.005043238542232695
0.085,0.016389143537258698,0.0,0.18327413730531236,0.00930737840618183,0.9726462165450236,0.005038715479856898
0.08600000000000001,0.016412827747785012,0.0,0.18322078764932181,0.008970249277168458,0.9743731195325311,0.005034665567336154
0.08700000000000001,0.01643651195831133,0.0,0.18317497711307484,0.008645362568123486,0.9760999540514547,0.00503103963822232
0.088,0.016460196168837645,0.0,0.18313560398304188,0.008332287455238915,0.9778267300928971,0.005027793432139941
0.089,0.01648388037936396,0.0,0.18310156739890524,0.008030593114706733,0.9795534576479616,0.005024887138997326
0.09,0.016507564589890278,0.0,0.18307176717710638,0.0077398487227189425,0.9812801467077513,0.005022284981243141
0.091,0.016531248800416593,0.0,0.18304524089260504,0.007459646398686714,0.9830068060154045,0.0050199550278322526
0.092,0.016554933010942907,0.0,0.18302190743650587,0.007189616402122436,0.9847334363021266,0.005017868895519623
0.093,0.016578617221469225,0.0,0.18300097341989252,0.00692930954814359,0.9864600447785236,0.005016000464567081
0.094,0.01660230143199554,0.0,0.18298200992637845,0.006678413142594431,0.9881866353422035,0.005014327301466747
0.095,0.016625985642521855,0.0,0.18296458816549171,0.006436614491319215,0.9899132118907744,0.005012829182241864
0.096,0.016649669853048173,0.0,0.18294827945187508,0.006203600900162195,0.9916397783218442,0.005011487890700188
0.097,0.016673354063574487,0.0,0.18293265518973909,0.005979059674967627,0.9933663385330209,0.005010287033129046
0.098,0.016697038274100802,0.0,0.18291728686251352,0.005762678121579766,0.9950928964219125,0.005009211868322949
0.099,0.01672072248462712,0.0,0.18290174602721035,0.005554143545842866,0.996819455886127,0.005008249151888109
0.1,0.016744406695153435,0.0,0.18288580842052735,0.00535322044766005,0.9985460189662632,0.0050073873346778075
0.101,0.01676809090567975,0.0,0.18286931988808203,0.00515956124248341,1.000272587065389,0.005006615535260225
0.10200000000000001,0.016791775116206067,0.0,0.18285198525807023,0.00497285106210847,1.0019991628699718,0.005005924153429502
0.10300000000000001,0.016815459326732382,0.0,0.1828336562436943,0.0047928735233864,1.0037257477304462,0.005005304942335191
0.10400000000000001,0.016839143537258697,0.0,0.18281418459547016,0.004619412243168372,1.0054523429972462,0.005004750461286235
0.105,0.016862827747785015,0.0,0.18279342210535904,0.004452250838305559,1.0071789500208057,0.005004254002884366
0.106,0.01688651195831133,0.0,0.1827712206115849,0.004291172925649127,1.0089055701515597,0.0050038095260133515
0.107,0.016910196168837644,0.0,0.18274743200454066,0.00413596212205025,1.0106322047399416,0.005003411594296075
0.108,0.016933880379363962,0.0,0.18272190823261567,0.003986402044360097,1.0123588551363862,0.0050030553196496455
0.109,0.016957564589890277,0.0,0.18269450130904255,0.0038422763094298415,1.0140855226913275,0.005002736310586738
0.11,0.01698124880041659,0.0,0.18266506331929072,0.0037033685341106527,1.0158122087551997,0.005002450624929026
0.111,0.01700493301094291,0.0,0.18263358336210916,0.003569529691480872,1.0175389134317285,0.005002194859149675
0.112,0.017028617221469224,0.0,0.18260004604004004,0.0034405177630504767,1.019265636865925,0.005001965768867454
0.113,0.01705230143199554,0.0,0.18256434583555148,0.0033161337019591377,1.0209923800238248,0.005001760530797972
0.114,0.017075985642521857,0.0,0.18252643775760485,0.0031962338559121005,1.0227191433209555,0.005001576701017619
0.115,0.01709966985304817,0.0,0.18248627687373825,0.0030806745726146096,1.0244459271728439,0.005001412074261333
0.116,0.017123354063574486,0.0,0.18244381831290035,0.0029693121997719112,1.0261727319950176,0.005001264662375408
0.117,0.017147038274100804,0.0,0.18239901726831398,0.0028620030850892504,1.0278995582030035,0.0050011326744996585
0.11800000000000001,0.01717072248462712,0.0,0.18235182900021576,0.0027586035762718723,1.029626406212329,0.005001014498864483
0.11900000000000001,0.017194406695153434,0.0,0.18230220883905568,0.002658970021025022,1.0313532764385214,0.005000908686093758
0.12,0.017218090905679752,0.0,0.1822501121883787,0.0025629587670539466,1.0330801692971079,0.00500081393390978
0.121,0.017241775116206066,0.0,0.18219549452793019,0.0024704261620638887,1.0348070852036153,0.005000729073141713
0.122,0.01726545932673238,0.0,0.18213833680291683,0.002381257358355869,1.0365340243421288,0.005000653080225816
0.123,0.0172891435372587,0.0,0.18207865908084414,0.002295323027606911,1.0382609865406023,0.005000585021301263
0.124,0.017312827747785014,0.0,0.18201642047652497,0.0022124674868232975,1.0399879721832435,0.0050005240380238255
0.125,0.01733651195831133,0.0,0.18195160758744094,0.002132595834685505,1.0417149814043303,0.005000469406830785
0.126,0.017360196168837647,0.0,0.1818842070763529,0.0020556131698740107,1.0434420143381415,0.005000420474647102
0.127,0.01738388037936396,0.0,0.1818142056724325,0.0019814245910692906,1.0451690711189552,0.005000376652539892
0.128,0.017407564589890276,0.0,0.18174159017233113,0.0019099351969518218,1.0468961518810496,0.0050003374098803125
0.129,0.017431248800416594,0.0,0.18166634744128146,0.00184105008620208,1.0486232567587028,0.005000302268979449
0.13,0.01745493301094291,0.0,0.1815884644139705,0.0017746743575005426,1.0503503858861936,0.005000270800166319
0.131,0.017478617221469223,0.0,0.18150792809588887,0.0017107131095276855,1.0520775393978,0.005000242617277675
0.132,0.01750230143199554,0.0,0.1814247255642153,0.0016490714409639856,1.0538047174278002,0.005000217373530786
0.133,0.017525985642521856,0.0,0.1813388469576897,0.001589670981154516,1.0555319200831645,0.005000194764233554
0.134,0.01754966985304817,0.0,0.18125030318345156,0.001532474722421901,1.057259147281706,0.005000174530107904
0.135,0.01757335406357449,0.0,0.18115907771955675,0.0014773028277670715,1.0589863991924469,0.0050001563867614444
0.136,0.017597038274100803,0.0,0.1810651669743389,0.0014240971376722447,1.0607136758668974,0.005000140123203963
0.137,0.017620722484627118,0.0,0.18096856742273476,0.001372799492619638,1.0624409773565673,0.005000125548606315
0.138,0.017644406695153436,0.0,0.18086927560663676,0.0013233517330914692,1.0641683037129666,0.005000112490531566
0.139,0.01766809090567975,0.0,0.1807672881351912,0.0012756956995699552,1.0658956549876053,0.005000100793302698
0.14,0.017691775116206065,0.0,0.18066260168545661,0.001229773232537314,1.0676230312319932,0.005000090316498317
0.14100000000000001,0.017715459326732384,0.0,0.18055521300266242,0.0011855261724757625,1.0693504324976404,0.005000080933568128
0.14200000000000002,0.017739143537258698,0.0,0.1804451189006479,0.0011428963598675182,1.0710778588360566,0.005000072530560346
0.14300000000000002,0.017762827747785016,0.0,0.18033231626235743,0.001101825635194799,1.0728053102987518,0.00500006500495356
0.14400000000000002,0.01778651195831133,0.0,0.1802168020401432,0.0010622558389398217,1.0745327869372363,0.00500005826458592
0.145,0.017810196168837646,0.0,0.18009857325639997,0.001024128811584805,1.0762602888030195,0.005000052226674884
0.146,0.01783388037936396,0.0,0.1799776270037871,0.0009873863936119645,1.0779878159476115,0.005000046816921097
0.147,0.01785756458989028,0.0,0.17985396044576826,0.0009519704255035184,1.0797153684225225,0.005000041968690306
0.148,0.017881248800416593,0.0,0.1797280636715639,0.0009178455903973164,1.0814429417559344,0.00500003762526355
0.149,0.017904933010942908,0.0,0.179599402883788,0.0008849681622066008,1.0831705408706085,0.0050000337342969575
0.15,0.017928617221469226,0.0,0.17946694768214652,0.0008532561061315123,1.0848981752579336,0.005000030244318325
0.151,0.01795230143199554,0.0,0.1793310793542683,0.00082267573901578,1.0866258414537084,0.005000027114904732
0.152,0.017975985642521855,0.0,0.179192178724705,0.0007931933777031333,1.0883535359937309,0.005000024309495964
0.153,0.017999669853048173,0.0,0.17905062612018913,0.0007647753390373016,1.0900812554137995,0.005000021795055207
0.154,0.018023354063574488,0.0,0.17890680133932377,0.0007373879398620139,1.0918089962497126,0.00500001954175602
0.155,0.018047038274100802,0.0,0.17876108362613913,0.0007109974970209999,1.0935367550372683,0.005000017522693903
0.156,0.01807072248462712,0.0,0.178613851647503,0.0006855703273579885,1.095264528312265,0.005000015713620889
0.157,0.018094406695153435,0.0,0.17846548347449454,0.0006610727477167093,1.0969923126105012,0.005000014092701644
0.158,0.01811809090567975,0.0,0.1783163565679889,0.0006374710749408915,1.098720104467775,0.005000012640289624
0.159,0.018141775116206068,0.0,0.17816684776791708,0.0006147316258742644,1.1004479004198848,0.005000011338721931
0.16,0.018165459326732383,0.0,0.17801733328655797,0.0005928207173605573,1.1021756970026289,0.005000010172131543
0.161,0.018189143537258697,0.0,0.17786818870591725,0.0005717046662434995,1.1039034907518057,0.005000009126275696
0.162,0.018212827747785015,0.0,0.17771978897904245,0.0005513497893668203,1.1056312782032132,0.005000008188379249
0.163,0.01823651195831133,0.0,0.17759227386016865,0.0005317632777573466,1.1073588733967472,0.005000007348793651
0.164,0.018260196168837645,0.0,0.1775042345572752,0.0005128904652993042,1.1090861044287803,0.005000006596019916
0.165,0.018283880379363963,0.0,0.17744673707890488,0.0004946766929368899,1.1108130535471932,0.00500000591993655
0.166,0.018307564589890277,0.0,0.17741963431744373,0.00047710419857010774,1.112539721973845,0.0050000053129472186
0.167,0.018331248800416592,0.0,0.17742278703491388,0.00046015522009896164,1.1142661109305954,0.005000004768164808
0.168,0.01835493301094291,0.0,0.17745606374998796,0.00044381199542345564,1.1159922216393032,0.005000004279350953
0.169,0.018378617221469225,0.0,0.17751934062525018,0.0004280567624435937,1.1177180553218282,0.00500000384086006
0.17,0.01840230143199554,0.0,0.17761250135548465,0.00041287175905937973,1.1194436132000294,0.005000003447587577
0.171,0.018425985642521858,0.0,0.1777354370558538,0.00039823922317081776,1.1211688964957662,0.005000003094922215
0.17200000000000001,0.018449669853048172,0.0,0.17788804615089912,0.00038414139267791184,1.1228939064308983,0.005000002778701909
0.17300000000000001,0.018473354063574487,0.0,0.1780702342641305,0.0003705605054806658,1.1246186442272843,0.005000002495173258
0.17400000000000002,0.018497038274100805,0.0,0.1782819141077937,0.0003574787994790838,1.126343111106784,0.00500000224095423
0.17500000000000002,0.01852072248462712,0.0,0.17852300537333646,0.00034487851257316963,1.1280673082912567,0.005000002012999903
0.176,0.018544406695153434,0.0,0.17879343462235378,0.00033274188266292767,1.1297912370025613,0.005000001808571061
0.177,0.01856809090567975,0.0,0.17909313517799927,0.0003210511476483613,1.1315148984625576,0.0050000016252054105
0.178,0.018591775116206067,0.0,0.17942204701684783,0.0003097885454294748,1.133238293893105,0.0050000014606912686
0.179,0.01861545932673238,0.0,0.17978011666134824,0.000298936313906272,1.1349614245160622,0.005000001313043521
0.18,0.0186391435372587,0.0,0.18016729707269952,0.0002884766909787571,1.1366842915532889,0.005000001180481703
0.181,0.018662827747785014,0.0,0.18058354754412423,0.00027839191454693396,1.1384068962266445,0.005000001061410022
0.182,0.01868651195831133,0.0,0.18102896817471412,0.000268676218421488,1.1401292385272865,0.005000000954535576
0.183,0.018710196168837644,0.0,0.18150411777664582,0.00025933221764516163,1.1418513143193731,0.005000000858767121
0.184,0.018733880379363962,0.0,0.1820087332429309,0.0002503110681712626,1.1435731270482214,0.0050000007725853335
