Time [s],Lmtc [m],STIM [ ],Fsee [N],Gamma [ ],Lcerel [ ],q [ ]
0.0,0.019639143537258697,0.0,10.915285583998154,0.20298591355656628,1.1871709985605912,0.6591402463429534
0.001,0.019039143537258697,0.0,0.0,0.19562720595839034,1.1801029371450276,0.6249679668948261
0.002,0.018439143537258697,0.0,0.0,0.18853527977232132,1.169505949566625,0.5857802572977551
0.003,0.017839143537258698,0.0,0.0,0.18170047447684357,1.1589324521446192,0.5455252098671656
0.004,0.017239143537258698,0.0,0.0,0.17511343136668975,1.1483801805444411,0.5047175165704233
0.005,0.016639143537258698,0.0,0.0,0.16876522578769867,1.137847547296129,0.4639014697479939
0.006,0.016039143537258698,0.0,0.0,0.1626471575218252,1.1273337435021378,0.4236216170313691
0.007,0.015439143537258698,0.0,0.0,0.15675089506888426,1.11684047455118,0.38439656571096426
0.008,0.014839143537258698,0.0,0.0,0.15106839482546475,1.1063745052626097,0.3466951299226652
0.009000000000000001,0.014660196168837646,0.0,0.0,0.14559190884819542,1.0959537952815517,0.31092077394506845
0.01,0.014691775116206066,0.0,0.0,0.14031396813015395,1.0856201568262618,0.2774062239368746
0.011,0.014723354063574487,0.0,0.0,0.13522737504173396,1.0754505586726213,0.2464093510475883
0.012,0.014754933010942908,0.0,0.0,0.13032519199113513,1.065563546598315,0.21810803704951232
0.013000000000000001,0.01478651195831133,0.0,0.0,0.1256007317555403,1.056117138630333,0.1925941622836051
0.014,0.01481809090567975,0.0,0.0,0.12104755327425624,1.047285173319801,0.16986286260172018
0.015,0.014849669853048171,0.0,0.0,0.11665944606055993,1.0392168102425636,0.14980756982707513
0.016,0.014881248800416592,0.0,0.0,0.11243042562849485,1.0319989589766283,0.1322328864609551
0.017,0.014912827747785014,0.0,0.0,0.10835472481159097,1.0256425698408198,0.1168863154510866
0.018000000000000002,0.014944406695153435,0.0,0.0,0.1044267854432907,1.0200959049023193,0.10349632073027502
0.019,0.014975985642521856,0.0,0.0,0.10064124861010812,1.0152699397876928,0.09180200650891518
0.02,0.015007564589890277,0.0,0.0,0.09699295268359151,1.0110622671270129,0.08156943063155081
0.021,0.015039143537258697,0.0,0.0,0.0934769235320612,1.0073735278745797,0.07259689138949108
0.022,0.01507072248462712,0.0,0.0,0.09008836487850734,1.0041146995797727,0.06471336577172275
0.023,0.01510230143199554,0.0,0.0,0.08682265674549691,1.001210201404073,0.05777469951286026
0.024,0.015133880379363961,0.0,0.0,0.08367534056711587,0.9985970186001022,0.051658965615882936
0.025,0.015165459326732382,0.0,0.0,0.08064213109151647,0.9962244725362206,0.04626271409420114
0.026000000000000002,0.015197038274100804,0.0,0.0,0.07771888394049989,0.9940506678033406,0.04149722210060431
0.027,0.015228617221469225,0.0,0.0,0.07490162042118519,0.9920423861016476,0.037286191719577484
0.028,0.015260196168837645,0.0,0.0,0.07218649058901334,0.9901720164051311,0.03356335521685811
0.029,0.015291775116206066,0.0,0.0,0.06956979881875244,0.988417589476289,0.030271073808363136
0.03,0.015323354063574487,0.0,0.0,0.06704796958441542,0.9867607251867903,0.02735885926749304
0.031,0.01535493301094291,0.0,0.0,0.06461757421852056,0.9851867001705711,0.024782468629359664
0.032,0.01538651195831133,0.0,0.0,0.062275275464056895,0.9836827802614483,0.02250290002874491
0.033,0.01541809090567975,0.0,0.0,0.06001790951668722,0.9822391673689941,0.020485896598312105
0.034,0.015449669853048171,0.0,0.0,0.05784237761141485,0.9808469996505055,0.01870112859527839
0.035,0.015481248800416594,0.0,0.0,0.05574571085193258,0.9794990741801348,0.01712184112821313
0.036000000000000004,0.015512827747785014,0.0,0.0,0.053725077862099097,0.9781895604894377,0.015724413778913714
0.037,0.015544406695153435,0.0,0.0,0.05177767988765235,0.9769129976307068,0.014487883867298755
0.038,0.015575985642521856,0.0,0.0,0.049900875072050044,0.9756651082817198,0.013393760593016934
0.039,0.015607564589890276,0.0,0.0,0.04809213602189554,0.9744423494574027,0.01242568947043953
0.04,0.015639143537258697,0.0,0.0,0.046348973932920756,0.9732413741391777,0.011569155943016336
0.041,0.015670722484627118,0.0,0.0,0.044668978525932136,0.9720593105114997,0.010811312581842241
0.042,0.01570230143199554,0.0,0.0,0.043049908382736785,0.9708939812863412,0.010140829666919437
0.043000000000000003,0.015733880379363963,0.0,0.0,0.04148956206674927,0.9697433372847952,0.009547653784180573
0.044,0.015765459326732383,0.0,0.0,0.039985750130361576,0.9686054349593447,0.009022860965078119
0.045,0.015797038274100804,0.0,0.0,0.03853643666228055,0.9674787758454375,0.00855858350594756
0.046,0.015828617221469225,0.0,0.0,0.037139697316422755,0.9663621459708016,0.008147867646013851
0.047,0.015860196168837645,0.0,0.0,0.035793614388227396,0.9652543418229004,0.007784537165534798
0.048,0.015891775116206066,0.0,0.0,0.03449635302461159,0.9641543287934528,0.0074631304209938
0.049,0.015923354063574487,0.0,0.0,0.03324603637027164,0.9630610606216575,0.007178790110225841
0.05,0.015954933010942907,0.0,0.0,0.032041056482264046,0.9619739065762587,0.006927265204506072
0.051000000000000004,0.015986511958311328,0.0,0.0,0.03087980541764529,0.9608922359260001,0.006704777776154208
0.052000000000000005,0.016018090905679752,0.0,0.0,0.029760675233471878,0.9598154179396257,0.00650797333974822
0.053,0.016049669853048173,0.0,0.0,0.028682094713739045,0.9587428692368192,0.006333881640096678
0.054,0.016081248800416593,0.0,0.0,0.02764261026194055,0.9576741566400679,0.006179885224602794
0.055,0.016112827747785014,0.0,0.0,0.02664081694586243,0.9566089174970688,0.006043667215033285
0.056,0.016144406695153435,0.0,0.08010069583373955,0.0256753407400827,0.95593557436978,0.005924749832553323
0.057,0.016175985642521856,0.0,0.21070000245120998,0.024744867001550964,0.9568678780318401,0.005825161426080352
0.058,0.016207564589890276,0.0,0.22208270264570795,0.023848126757491466,0.9590745528296858,0.0057404174285518176
0.059000000000000004,0.016239143537258697,0.0,0.22108168076216939,0.02298389698750443,0.9613847177509155,0.005664673623618089
0.06,0.016270722484627118,0.0,0.2196000241800068,0.022150999586758084,0.9636988899144401,0.005596685329560642
0.061,0.01630230143199554,0.0,0.2182442217558954,0.021348296883447658,0.966012055231413,0.005535646282391366
0.062,0.016333880379363962,0.0,0.21702657509797363,0.020574727773928377,0.9683241015630846,0.005480849357055134
0.063,0.016365459326732383,0.0,0.2159337477265392,0.019829161555521238,0.9706351311479403,0.005431651889250269
0.064,0.016397038274100804,0.0,0.21495331395225128,0.01911060342231608,0.9729452405369617,0.005387483886958395
0.065,0.016428617221469224,0.0,0.21407415046292466,0.018418115121558994,0.9752545169679662,0.005347834324756974
0.066,0.016460196168837645,0.0,0.2132852928627459,0.01775075840049608,0.977563047678771,0.005312241814857961
0.067,0.016491775116206066,0.0,0.21257618037896234,0.017107616641967558,0.9798709176501937,0.0052802912969627325
0.068,0.016523354063574486,0.0,0.21193883361005963,0.016487840366983673,0.9821781910124338,0.0052516117595467204
0.069,0.016554933010942907,0.0,0.2113645994978682,0.015890416523570847,0.9844849383038798,0.005225860950353662
0.07,0.01658651195831133,0.0,0.21084773405556467,0.015314614069287084,0.986791206050848,0.005202743510944966
0.07100000000000001,0.016618090905679752,0.0,0.21038254453031544,0.014759701961690385,0.9890970407796548,0.0051819924339137355
0.07200000000000001,0.016649669853048173,0.0,0.2099633823920703,0.014224949158338756,0.9914024890166161,0.005163366562825423
0.073,0.016681248800416593,0.0,0.20958463703691446,0.013709624616790206,0.9937075972880482,0.005146648285132368
0.074,0.016712827747785014,0.0,0.20924073020550135,0.013212997294602723,0.9960124121202676,0.005131641406471745
0.075,0.016744406695153435,0.0,0.2089272321083438,0.012734394984564456,0.9983169704973051,0.005118170937278199
0.076,0.016775985642521855,0.0,0.20864167446998003,0.012273109659707966,1.0006212928668952,0.005106078078668558
0.077,0.016807564589890276,0.0,0.20838052625761572,0.011828480998611383,1.0029254088410433,0.005095221162594128
0.078,0.016839143537258697,0.0,0.20814122464615695,0.011399958478777589,1.0052293398884047,0.005085475225696224
0.079,0.01687072248462712,0.0,0.20792121626309665,0.010986991577709456,1.0075331074776348,0.00507672735357173
0.08,0.01690230143199554,0.0,0.2077179559532578,0.010589029772909864,1.0098367330773892,0.005068875610154396
0.081,0.016933880379363962,0.0,0.2075289056961615,0.010205522541881692,1.0121402381563231,0.005061828050985098
0.082,0.016965459326732383,0.0,0.20735153367513132,0.009835919362127814,1.0144436441830922,0.005055501815137123
0.083,0.016997038274100804,0.0,0.20718456787519549,0.009479774447958715,1.0167469619038358,0.005049824050053093
0.084,0.017028617221469224,0.0,0.2070264758003767,0.009136468054562445,1.019050204316653,0.005044726179400974
0.085,0.017060196168837645,0.0,0.20687591893189555,0.008805549148666499,1.021353382785537,0.00504014921778615
0.08600000000000001,0.017091775116206066,0.0,0.20673183585611427,0.00848661318991116,1.0236565063236307,0.0050360405665298485
0.08700000000000001,0.017123354063574486,0.0,0.206593166961715,0.008179255637936719,1.0259595839440765,0.005032352688481203
0.088,0.017154933010942907,0.0,0.2064588542895369,0.007883071952383466,1.0282626246600166,0.005029042659220211
0.089,0.017186511958311328,0.0,0.20632784140921434,0.0075976575928916774,1.030565637484594,0.005026071753370817
0.09,0.017218090905679752,0.0,0.20619907332292595,0.007322608019101648,1.0328686314309505,0.005023405063824018
0.091,0.017249669853048172,0.0,0.2060714963954872,0.007057518690653662,1.0351716155122292,0.005021011151758946
0.092,0.017281248800416593,0.0,0.20594500596818338,0.006802083654305481,1.0374745906165863,0.005018862599683546
0.093,0.017312827747785014,0.0,0.20581885071144565,0.006555840870535815,1.0397775631794368,0.00501693331330011
0.094,0.017344406695153435,0.0,0.20569256984131112,0.006318489471888133,1.0420805371515158,0.005015201177334264
0.095,0.017375985642521855,0.0,0.2055657464023535,0.006089737390566534,1.0443835161122907,0.005013646266055158
0.096,0.017407564589890276,0.0,0.20543796395559022,0.005869292558775117,1.0466865036412283,0.005012250574403338
0.097,0.0174391435372587,0.0,0.20530880658623074,0.0056568629087179806,1.048989503317796,0.0050109978472313785
0.098,0.01747072248462712,0.0,0.20517785891608356,0.005452156372599222,1.0512925187214608,0.0050098734219663574
0.099,0.01750230143199554,0.0,0.20504470611993048,0.00525488088262294,1.05359555343169,0.005008864083844964
0.1,0.017533880379363962,0.0,0.20490896983442208,0.0050647621520047426,1.0558986107194788,0.005007958022309312
0.101,0.017565459326732383,0.0,0.2047706640930686,0.004881600789023307,1.0582016904865998,0.005007144945787047
0.10200000000000001,0.017597038274100803,0.0,0.20462940493475104,0.0047049938971910465,1.0605047960583858,0.005006414639430295
0.10300000000000001,0.017628617221469224,0.0,0.204485048040625,0.004534740633618516,1.0628079287033256,0.005005758835164686
0.10400000000000001,0.017660196168837645,0.0,0.20433744937039675,0.00437064015541627,1.065111089689908,0.005005170047653672
0.105,0.017691775116206065,0.0,0.20418646517387232,0.004212491619694865,1.0674142802866222,0.005004641506391091
0.106,0.017723354063574486,0.0,0.20403195200314103,0.004060094183564851,1.069717501761957,0.005004167092948054
0.107,0.017754933010942907,0.0,0.20387376672523191,0.003913247004136784,1.0720207553844008,0.005003741283063331
0.108,0.01778651195831133,0.0,0.2037117665353157,0.003771749238521218,1.0743240424224432,0.005003359093278165
0.109,0.01781809090567975,0.0,0.20354580897043897,0.0036354000438287085,1.0766273641445725,0.005003016031828383
0.11,0.017849669853048172,0.0,0.20337575192375973,0.003503998577169809,1.0789307218192778,0.005002708053518565
0.111,0.017881248800416593,0.0,0.2032014627170523,0.003377344336258327,1.0812341166368677,0.005002431519098977
0.112,0.017912827747785014,0.0,0.2030242508048668,0.0032553346262093564,1.0835375373377056,0.005002183366145526
0.113,0.017944406695153434,0.0,0.20284031163775543,0.0031376884257999595,1.0858410168235129,0.005001960450939365
0.114,0.017975985642521855,0.0,0.20265073200304362,0.003024272458295393,1.0881445457809749,0.0050017602551125214
0.115,0.018007564589890276,0.0,0.2024565969481864,0.0029149534469609132,1.0904481148967775,0.005001580498435496
0.116,0.018039143537258696,0.0,0.20225898964297817,0.0028095981150617756,1.0927517148576067,0.005001419118180628
0.117,0.01807072248462712,0.0,0.2020589912704091,0.0027080731858632363,1.0950553363501485,0.0050012742500503814
0.11800000000000001,0.01810230143199554,0.0,0.20185768094603806,0.002610245382630552,1.0973589700610882,0.00500114421057612
0.11900000000000001,0.018133880379363962,0.0,0.20165613566607107,0.0025159814286289783,1.0996626066771122,0.00500102748089656
0.12,0.018165459326732383,0.0,0.2014554302842328,0.0024251480471237717,1.1019662368849061,0.005000922691828761
0.121,0.018197038274100803,0.0,0.20125663751705244,0.0023376119613801867,1.1042698513711557,0.005000828610148109
0.122,0.018228617221469224,0.0,0.20106082797785485,0.00225323989466348,1.106573440822547,0.005000744125997438
0.123,0.018260196168837645,0.0,0.2009201204076732,0.0021719964417370925,1.1088765527663729,0.0050006683364263215
0.124,0.018291775116206065,0.0,0.2008376880831713,0.0020936481273055836,1.1111791591502216,0.005000600233342609
0.125,0.018323354063574486,0.0,0.20080988488221216,0.0020180974447798275,1.113481291320861,0.005000539044390396
0.126,0.01835493301094291,0.0,0.20083630399111344,0.001945260460476121,1.1157829527118186,0.005000484082121951
0.127,0.01838651195831133,0.0,0.20091656055923243,0.0018750532407107606,1.1180841467566225,0.0050004347237418345
0.128,0.01841809090567975,0.0,0.20105029116718998,0.0018073918518000426,1.1203848768888007,0.005000390405547344
0.129,0.018449669853048172,0.0,0.20123715329885647,0.0017421923600602631,1.122685146541881,0.005000350617785586
0.13,0.018481248800416593,0.0,0.20147682481705723,0.0016793708318077185,1.1249849591493915,0.005000314899902499
0.131,0.018512827747785014,0.0,0.20176900344349177,0.0016188433333587055,1.12728431814486,0.005000282836160115
0.132,0.018544406695153434,0.0,0.20211340624238666,0.00156052593102952,1.129583226961814,0.005000254051599185
0.133,0.01857598564252186,0.0,0.20250976910786678,0.0015043346911364588,1.1318816890337822,0.005000228208325279
0.134,0.018607564589890276,0.0,0.2029578462555703,0.001450185679995818,1.1341797077942917,0.0050002050020973195
0.135,0.0186391435372587,0.0,0.20345740971792423,0.0013979949639238939,1.136477286676871,0.005000184159198476
0.136,0.01867072248462712,0.0,0.20400868317126267,0.001347705298755196,1.1387744253735927,0.005000165444053036
0.137,0.01870230143199554,0.0,0.2046129355061259,0.001299255639106985,1.1410711147527057,0.0050001486418693375
0.138,0.018733880379363962,0.0,0.20526958429141243,0.00125252603460217,1.1433673618046714,0.005000133538420425
0.139,0.018765459326732382,0.0,0.20597851914063675,0.001207466335576783,1.145663169596359,0.005000119965964661
0.14,0.018797038274100803,0.0,0.2067396464097889,0.001164026392366857,1.1479585411946394,0.0050001077723911035
0.14100000000000001,0.018828617221469224,0.0,0.207552888754236,0.001122156055308424,1.1502534796663817,0.005000096819891197
0.14200000000000002,0.018860196168837648,0.0,0.20841818468836196,0.001081805174737517,1.1525479880784562,0.005000086983728426
0.14300000000000002,0.018891775116206065,0.0,0.20933548814819403,0.0010429236009901683,1.1548420694977328,0.005000078151100268
0.14400000000000002,0.01892335406357449,0.0,0.21030476805775913,0.0010054611844024105,1.1571357269910814,0.005000070220086974
0.145,0.018954933010942907,0.0,0.21132600789765565,0.000969367775310277,1.1594289636253718,0.005000063098681892
0.146,0.01898651195831133,0.0,0.2123992052777135,0.0009345932240497985,1.1617217824674742,0.005000056703898286
0.147,0.01901809090567975,0.0,0.2135243715116871,0.0009010873809570085,1.1640141865842581,0.005000050960947766
0.148,0.019049669853048172,0.0,0.21470153119616042,0.0008688000963679395,1.166306179042594,0.005000045802485679
0.149,0.019081248800416593,0.0,0.2159307217916607,0.000837681220618624,1.1685977629093511,0.005000041167919014
0.15,0.019112827747785013,0.0,0.21721197550155305,0.0008076808118688246,1.1708889413992158,0.005000037002803032
0.151,0.019144406695153434,0.0,0.21854497893393723,0.0007787617756856012,1.1731797207016108,0.005000033259979302
0.152,0.019175985642521855,0.0,0.21992975308432833,0.0007508905099691102,1.1754701042886273,0.005000029897259576
0.153,0.01920756458989028,0.0,0.22136631655125713,0.0007240301642676142,1.1777600957375913,0.005000026876073669
0.154,0.019239143537258696,0.0,0.2228546975835404,0.0006981438882926422,1.1800496986262834,0.005000024161610644
0.155,0.01927072248462712,1.0,0.2278020694528891,0.01487067806663045,1.1823110366724903,0.005435105218948052
0.156,0.01930230143199554,1.0,0.29232925198776727,0.03260197063820524,1.1841196531522953,0.010381824729161205
0.157,0.01933388037936396,1.0,0.5312935088978636,0.05001411850335054,1.184956832897965,0.02591426339908106
0.158,0.019365459326732382,1.0,0.9747849308867279,0.06711286602830545,1.185247818942285,0.05695914741743174
0.159,0.019397038274100803,1.0,1.5951117972390025,0.08390385397357555,1.1854045524635477,0.10575109032443379
0.16,0.019428617221469224,1.0,2.3955815268821175,0.10039262122925245,1.1854902862186447,0.17092834189383324
0.161,0.019460196168837644,1.0,3.384530294064735,0.11658460982543478,1.1855203540558108,0.2479275570843219
0.162,0.01949177511620607,1.0,4.547201603630726,0.13248515799754024,1.1855444698011977,0.3305844019235849
0.163,0.019523354063574486,1.0,5.851657420355239,0.1480995132802369,1.1856160889305363,0.41296530904687584
0.164,0.01955493301094291,1.0,7.252417956421374,0.16343282726896605,1.18578569300495,0.49059636215875896
0.165,0.01958651195831133,1.0,8.686807554535177,0.17849015699120113,1.186108626571,0.5608380600966645
0.166,0.01961809090567975,1.0,10.075199018796521,0.19327647078918536,1.1866455686438975,0.6226334387560907
0.16666666666666666,0.019639143537258697,1.0,10.932654428443916,0.20298586139543,1.1871505516537666,0.6591199542079852
