Time [s],Lmtc [m],STIM [ ],Fsee [N],Gamma [ ],Lcerel [ ],q [ ]
0.0,0.0181391435372587,0.0,10.846614959266368,0.2680922501736541,1.0779121868752148,0.7444915533561604
0.001,0.0179591435372587,0.0,3.5955480217516302,0.2583731704272583,1.0756642707242603,0.7194305419303072
0.002,0.0177791435372587,0.0,1.06154432946592,0.24900644714488046,1.069281551587328,0.6890665821965787
0.003,0.0175991435372587,0.0,0.25410884273070344,0.23997930593756636,1.060255688121497,0.654382536179118
0.004,0.0174191435372587,0.0,0.016282016775381672,0.23127943558153694,1.050064667764412,0.6167860846426707
0.005,0.017239143537258698,0.0,0.0,0.22289497084192775,1.0395726424843819,0.5774380614573199
0.006,0.017059143537258698,0.0,0.0,0.21481447795329506,1.0290747195714127,0.5371003987308521
0.007,0.0168791435372587,0.0,0.0,0.20702693573658074,1.0185775413674032,0.49630121500817576
0.008,0.0166991435372587,0.0,0.0,0.19952172370121413,1.008082194533104,0.45558728535870624
0.009000000000000001,0.0165191435372587,0.0,0.0,0.19228860653919683,0.997591296300291,0.41550240995395893
0.01,0.0163391435372587,0.0,0.0,0.18531771968253904,0.9871136019222674,0.3765633627657671
0.011,0.0161591435372587,0.0,0.0,0.17859955635074154,0.9766705706925771,0.3392398118601911
0.012,0.016147564589890275,0.0,0.0,0.17212495220370172,0.9662972880753024,0.3039321639429722
0.013000000000000001,0.016157038274100803,0.0,0.14090798897658163,0.16588508035475907,0.9561376363657886,0.27103635646030105
0.014,0.016166511958311328,0.0,1.5370804604981714,0.15987142921291406,0.9501015606707848,0.2438044349361393
0.015,0.016175985642521856,0.0,2.536571499237562,0.15407579752467288,0.9480461742060234,0.221487868865028
0.016,0.01618545932673238,0.0,3.046200789476274,0.1484902812496129,0.9475486629593763,0.20179416702309302
0.017,0.016194933010942908,0.0,3.287653507349553,0.14310726242170185,0.9477112241367234,0.18390595982203098
0.018000000000000002,0.016204406695153436,0.0,3.304055498690739,0.13791940080182813,0.9483666385779124,0.1676071607661867
0.019,0.01621388037936396,0.0,3.123951869759591,0.13291962045664993,0.9494481266428888,0.15275994409406018
0.02,0.01622335406357449,0.0,2.884371200756994,0.12810110202854028,0.9506766209544387,0.1391249508273725
0.021,0.016232827747785013,0.0,2.648972838350996,0.12345727509510965,0.9519179576084256,0.12657368316965922
0.022,0.01624230143199554,0.0,2.4296839164238277,0.11898180797816323,0.9531440815308325,0.11504031336210363
0.023,0.016251775116206065,0.0,2.2270224951323847,0.11466858755229091,0.9543515367672631,0.10446914948567926
0.024,0.016261248800416593,0.0,2.039837149421065,0.11051174969912392,0.955540855395989,0.09480400954990574
0.025,0.016270722484627118,0.0,1.8669715385270682,0.10650560293074775,0.9567127779743821,0.08598739257681173
0.026000000000000002,0.016280196168837646,0.0,1.7074803178733955,0.10264470331469394,0.9578676488829463,0.07796156871071568
0.027,0.01628966985304817,0.0,1.5605563356435859,0.09892384801357088,0.959005538822467,0.07066954918556176
0.028,0.016299143537258698,0.0,1.4255000902691115,0.09533773402284022,0.9601262746579369,0.06405519537420157
0.029,0.016308617221469222,0.0,1.3016507536167286,0.09188166492327624,0.9612296165766917,0.05806524932283499
0.03,0.01631809090567975,0.0,1.188364790876642,0.08855097711370519,0.9623153223851301,0.05264857469913197
0.031,0.016327564589890275,0.0,1.0850102930048249,0.08534102895541573,0.9633831733063871,0.047756509738751014
0.032,0.016337038274100803,0.0,0.9909230100985464,0.08224742168292508,0.9644331568092755,0.04334346337199747
0.033,0.01634651195831133,0.0,0.9054522779318658,0.07926601417263358,0.9654653316580625,0.03936694555310587
0.034,0.016355985642521855,0.0,0.8279684937131789,0.07639272574959269,0.9664798125629784,0.035787290953398034
0.035,0.016365459326732383,0.0,0.7578420456503283,0.0736234367265113,0.9674768754581801,0.03256756391119398
0.036000000000000004,0.016374933010942908,0.0,0.6944608701614603,0.07095457378435953,0.9684569083562768,0.029674180163114572
0.037,0.016384406695153435,0.0,0.6372569192648573,0.06838256360410751,0.9694202992698783,0.027076075041784095
0.038,0.01639388037936396,0.0,0.585704003029213,0.06590383286672531,0.9703674362115938,0.024744638320970035
0.039,0.016403354063574488,0.0,0.5392922928836203,0.06351502119035457,0.9712988311134182,0.02265381800919697
0.04,0.016412827747785012,0.0,0.49753879232209314,0.06121262874033583,0.9722150761677786,0.020779649705626867
0.041,0.01642230143199554,0.0,0.46000614423630276,0.058993689236400325,0.9731167369592254,0.01910068089206933
0.042,0.016431775116206065,0.0,0.42629369922084676,0.05685527372671913,0.97400438321677,0.017597354248913417
0.043000000000000003,0.016441248800416593,0.0,0.39603564008505354,0.0547944532594633,0.9748785846694239,0.01625186075332055
0.044,0.016450722484627117,0.0,0.36889712050505846,0.05280836622593465,0.9757399192323692,0.015048065927813516
0.045,0.016460196168837645,0.0,0.34456356584099573,0.05089420188511685,0.9765890289317932,0.013971372603085879
0.046,0.01646966985304817,0.0,0.32275497451013535,0.049049373583839664,0.9774265161663167,0.013008683674353837
0.047,0.016479143537258698,0.0,0.30321871927627736,0.047271469427683115,0.9782529704511799,0.012148230334708205
0.048,0.016488617221469225,0.0,0.2857252579493457,0.04555807752222723,0.9790689813016231,0.011379366432546102
0.049,0.01649809090567975,0.0,0.27006665357973164,0.04390683374108009,0.9798751336586974,0.010692498628414374
0.05,0.016507564589890278,0.0,0.25605294936532547,0.042315405569954265,0.9806720199521906,0.010078987830960066
0.051000000000000004,0.016517038274100802,0.0,0.24351490140116885,0.04078159748208467,0.9814602049341637,0.009531101265292895
0.052000000000000005,0.01652651195831133,0.0,0.23230193979351077,0.03930342211975865,0.9822402246673465,0.009041943428916472
0.053,0.016535985642521855,0.0,0.22227673419931748,0.03787889212526359,0.9830126152144684,0.008605300837785334
0.054,0.016545459326732383,0.0,0.21331379563748704,0.03650602014088683,0.9837779126382586,0.008215582497067593
0.055,0.016554933010942907,0.0,0.20530298859079882,0.035182972834625695,0.9845366116507731,0.007867803802575376
0.056,0.016564406695153435,0.0,0.19814192383830498,0.033907758279242764,0.9852892178397701,0.007557445459314445
0.057,0.01657388037936396,0.0,0.19174482824391656,0.03267875573249489,0.9860361605345993,0.007280538960918331
0.058,0.016583354063574487,0.0,0.1860327222551524,0.03149435551694971,0.9867778667981438,0.007033518010397467
0.059000000000000004,0.016592827747785012,0.0,0.18093238215786484,0.03035294795517487,0.9875147636932865,0.0068131790501055195
0.06,0.01660230143199554,0.0,0.1763756316046062,0.029252923369738032,0.9882472782829105,0.006616647604127348
0.061,0.016611775116206064,0.0,0.17230803468084205,0.02819288335190135,0.988975750069562,0.006441381209605517
0.062,0.016621248800416592,0.0,0.168672846843598,0.027171092704093347,0.9897005727702529,0.006285046226154755
0.063,0.016630722484627117,0.0,0.16542835786284407,0.026186289723271174,0.9904220269009505,0.006145624882334564
0.064,0.016640196168837645,0.0,0.16253530349582035,0.02523721673741816,0.9911403918965533,0.0060213054024763416
0.065,0.016649669853048173,0.0,0.15995645080668996,0.024322616074517647,0.9918559471919601,0.0059104620638357076
0.066,0.016659143537258697,0.0,0.1576563259635337,0.02344123006255296,0.9925689722220695,0.005811637521951583
0.067,0.016668617221469225,0.0,0.1556009678244903,0.022591801029507433,0.9932797464217801,0.0057235266076159684
0.068,0.01667809090567975,0.0,0.15376522680839005,0.021773182852245748,0.9939884746134438,0.005644971860509868
0.069,0.016687564589890277,0.0,0.1521268868788567,0.020984155789956476,0.9946953416850458,0.005574930055609784
0.07,0.016697038274100802,0.0,0.1506661624253483,0.020223703014204536,0.9954005158322842,0.005512485304288689
0.07100000000000001,0.01670651195831133,0.0,0.14936494721580695,0.019490841840976478,0.9961041546689229,0.0054568191529988245
0.07200000000000001,0.016715985642521854,0.0,0.14820565756025394,0.018784589586258848,0.9968064158087262,0.005407198106741093
0.073,0.016725459326732382,0.0,0.14717115649135237,0.018103963566038207,0.9975074568654579,0.005362965388370958
0.074,0.016734933010942907,0.0,0.14624691303524473,0.017448062209883087,0.9982074127958411,0.005323538196407237
0.075,0.016744406695153435,0.0,0.14542164229050122,0.016815888905310855,0.9989063884395806,0.005288389385435275
0.076,0.01675388037936396,0.0,0.14468482747637723,0.016206549445364773,0.9996044830176111,0.005257053522508577
0.077,0.016763354063574487,0.0,0.1440281837522476,0.01561928684921564,1.0003017747308671,0.005229120819242193
0.078,0.01677282774778501,0.0,0.1434435639660383,0.015053344136034253,1.0009983417802826,0.005204223874758759
0.079,0.01678230143199554,0.0,0.14292293892791608,0.014507964324991412,1.0016942623667922,0.0051820335736024814
0.08,0.016791775116206067,0.0,0.14245837970366573,0.013982390435257917,1.00238961469133,0.005162255342489692
0.081,0.016801248800416592,0.0,0.142042041927755,0.013475865486004561,1.0030844769548306,0.005144625739435187
0.082,0.01681072248462712,0.0,0.1416699101516878,0.012987747132812307,1.0037788885101515,0.005128912969272307
0.083,0.016820196168837644,0.0,0.14133713295428113,0.012517238170266688,1.004472897789834,0.005114904815134579
0.084,0.016829669853048172,0.0,0.14103991374643943,0.012063746824534672,1.0051665427063647,0.005102417768506314
0.085,0.016839143537258697,0.0,0.1407747858966125,0.011626701325757416,1.0058598580567444,0.005091287875533645
0.08600000000000001,0.016848617221469225,0.0,0.1405383069657625,0.01120552990407608,1.006552878637974,0.0050813682284604955
0.08700000000000001,0.01685809090567975,0.0,0.14032705511959,0.010799660789631824,1.0072456392470548,0.005072527301882097
0.088,0.016867564589890277,0.0,0.1401376259409968,0.010408522212565814,1.007938174680988,0.005064647436845427
0.089,0.0168770382741008,0.0,0.13996710160056552,0.010031595467809693,1.0086305148283963,0.005057624435749404
0.09,0.01688651195831133,0.0,0.13981414873329767,0.009668350601107288,1.0093226732068787,0.005051364847088382
0.091,0.016895985642521854,0.0,0.13967644698866288,0.009318171542137665,1.0100146736747688,0.005045783784821586
0.092,0.016905459326732382,0.0,0.13955267380430272,0.008980642423602074,1.0107065297735478,0.005040808600467369
0.093,0.016914933010942906,0.0,0.1394415111237571,0.008655347378201766,1.0113982550446976,0.005036374119361583
0.094,0.016924406695153434,0.0,0.13934164478140706,0.008341870538637991,1.0120898630296993,0.005032421921066723
0.095,0.016933880379363962,0.0,0.13925176394731256,0.008039796037612,1.0127813672700343,0.0050288996826372565
0.096,0.016943354063574487,0.0,0.13917056063311153,0.007748708007825046,1.0134727813071844,0.005025760580025212
0.097,0.016952827747785015,0.0,0.13909672925838457,0.00746819058197838,1.0141641186826307,0.005022962743186554
0.098,0.01696230143199554,0.0,0.13902896627727987,0.00719782789277325,1.0148553929378548,0.0050204687607159765
0.099,0.016971775116206067,0.0,0.1389672519167289,0.006937326124602098,1.0155466042330838,0.005018246256357708
0.1,0.01698124880041659,0.0,0.13891072994120438,0.006686187569367445,1.0162377614650164,0.0050162645599779124
0.101,0.01699072248462712,0.0,0.13885887540885372,0.006444105772914229,1.016928870081793,0.0050144978361969465
0.10200000000000001,0.017000196168837644,0.0,0.13881123262120698,0.00621078727444551,1.0176199348151362,0.005012923005780298
0.10300000000000001,0.017009669853048172,0.0,0.13876734639609947,0.005985938613164355,1.01831096039677,0.005011519374351938
0.10400000000000001,0.017019143537258696,0.0,0.1387267620027046,0.005769266328273825,1.019001951558417,0.0050102684013186094
0.105,0.017028617221469224,0.0,0.138689025104167,0.005560476958976986,1.0196929130318004,0.005009153489169611
0.106,0.01703809090567975,0.0,0.1386536817073157,0.005359277044476895,1.0203838495486433,0.005008159791600483
0.107,0.017047564589890277,0.0,0.138620278120159,0.00516537312397662,1.021074765840669,0.005007274039002837
0.108,0.0170570382741008,0.0,0.13858853239767274,0.004978513280553245,1.0217656648473443,0.005006484553075916
0.109,0.01706651195831133,0.0,0.13855844236676285,0.004798416573933219,1.0224565465854454,0.0050057807659426865
0.11,0.017075985642521857,0.0,0.1385297150710018,0.00462480019781712,1.0231474141118615,0.005005153238629516
0.111,0.01708545932673238,0.0,0.13850219675194714,0.0044574575204561215,1.0238382690296952,0.005004593804882128
0.112,0.01709493301094291,0.0,0.13847573372934077,0.004296181910101394,1.0245291129420493,0.0050040951391585676
0.113,0.017104406695153434,0.0,0.13845017239465202,0.004140766735004111,1.0252199474520265,0.0050036506755547485
0.114,0.017113880379363962,0.0,0.13842535920595309,0.003991005363415446,1.0259107741627291,0.005003254533836106
0.115,0.017123354063574486,0.0,0.1384011406830268,0.0038466911635865685,1.0266015946772602,0.005002901452037857
0.116,0.017132827747785014,0.0,0.1383773634040241,0.003707617503768653,1.027292410598722,0.0050025867251286766
0.117,0.01714230143199554,0.0,0.1383538740022451,0.0035735777522128715,1.0279832235302175,0.005002306149263633
0.11800000000000001,0.017151775116206067,0.0,0.13833070614305007,0.0034444778133741185,1.028674033118801,0.005002056186153971
0.11900000000000001,0.01716124880041659,0.0,0.13830772699137786,0.0033199912937659655,1.0293648407533804,0.005001833227233094
0.12,0.01717072248462712,0.0,0.13828488053702084,0.0031999679842241455,1.030055647019509,0.005001634385828229
0.121,0.017180196168837644,0.0,0.1382621222479467,0.003084270294870902,1.0307464523828274,0.005001457091464639
0.122,0.01718966985304817,0.0,0.1382394076070931,0.002972760635828483,1.0314372573089754,0.005001299036373668
0.123,0.017199143537258696,0.0,0.13821669211186582,0.002865301417219135,1.0321280622635938,0.005001158150404055
0.124,0.017208617221469224,0.0,0.1381939312744337,0.0027617550491651046,1.032818867712323,0.0050010325781036985
0.125,0.017218090905679752,0.0,0.13817108062157535,0.002661983941788638,1.033509674120803,0.0050009206578103885
0.126,0.017227564589890276,0.0,0.1381480956948757,0.002565850505211983,1.0342004819546742,0.005000820902599497
0.127,0.017237038274100804,0.0,0.13812493205086096,0.0024732171495573845,1.0348912916795774,0.005000731982945786
0.128,0.01724651195831133,0.0,0.13810154526127782,0.0023839462849470907,1.0355821037611526,0.005000652710965279
0.129,0.017255985642521857,0.0,0.13807789091346834,0.0022979003215033464,1.0362729186650403,0.005000582026111581
0.13,0.01726545932673238,0.0,0.13805399390256176,0.0022150102272938265,1.036963736131268,0.0050005190336195274
0.131,0.01727493301094291,0.0,0.1380298371566826,0.00213509243073084,1.0376545563392907,0.005000462846490802
0.132,0.017284406695153434,0.0,0.1380053975284728,0.002058037860572014,1.0383453795322655,0.005000412728834813
0.133,0.01729388037936396,0.0,0.13798066339036558,0.001983758597617567,1.03903620583278,0.005000368034689939
0.134,0.017303354063574486,0.0,0.13795562311986165,0.0019121667226677192,1.0397270353634216,0.005000328184008505
0.135,0.017312827747785014,0.0,0.13793026509971779,0.0018431743165226897,1.0404178682467784,0.005000292656372725
0.136,0.01732230143199554,0.0,0.13790457771810422,0.0017766934599826984,1.0411087046054377,0.00500026098525323
0.137,0.017331775116206066,0.0,0.13787854936874291,0.0017126362338479647,1.0417995445619872,0.005000232752769895
0.138,0.01734124880041659,0.0,0.13785216845091802,0.0016509147189187078,1.0424903882390146,0.0050002075849170545
0.139,0.01735072248462712,0.0,0.13782542336990156,0.001591440995995148,1.0431812357591075,0.005000185147217439
0.14,0.017360196168837647,0.0,0.13779830253678066,0.0015341271458775045,1.0438720872448535,0.005000165140771409
0.14100000000000001,0.01736966985304817,0.0,0.13777079436884493,0.0014788852493659965,1.04456294281884,0.005000147298670114
0.14200000000000002,0.0173791435372587,0.0,0.13774290223195237,0.0014256929452806523,1.0452538024470057,0.005000131402079842
0.14300000000000002,0.017388617221469223,0.0,0.13771462597627634,0.0013744137925862322,1.0459446661321523,0.005000117221047607
0.14400000000000002,0.01739809090567975,0.0,0.1376859582580354,0.0013249542908710047,1.0466355339525355,0.005000104564195398
0.145,0.017407564589890276,0.0,0.13765689656897173,0.0012772616691974434,1.0473264059357503,0.00500009327092881
0.146,0.017417038274100804,0.0,0.13762743840366023,0.001231283156628017,1.0480172821093923,0.005000083196806123
0.147,0.01742651195831133,0.0,0.13759758125953428,0.0011869659822251993,1.0487081625010566,0.005000074212026989
0.148,0.017435985642521856,0.0,0.13756732263697227,0.0011442573750514622,1.0493990471383383,0.005000066200048449
0.149,0.01744545932673238,0.0,0.13753666003915552,0.0011031045641692776,1.0500899360488334,0.0050000590563191154
0.15,0.01745493301094291,0.0,0.1375055909724082,0.0010634547786411174,1.0507808292601366,0.005000052687122859
0.151,0.017464406695153433,0.0,0.13747411294591122,0.0010252552475294536,1.0514717267998437,0.005000047008523864
0.152,0.01747388037936396,0.0,0.13744222347203064,0.0009884531998967582,1.0521626286955497,0.005000041945405375
0.153,0.017483354063574486,0.0,0.13740992006612834,0.0009529958648055034,1.05285353497485,0.005000037430594915
0.154,0.017492827747785013,0.0,0.13737720024677053,0.0009188304713181609,1.05354444566534,0.00500003340406924
0.155,0.01750230143199554,0.0,0.13734406153562323,0.0008859042484972026,1.054235360794615,0.005000029812232654
0.156,0.017511775116206066,0.0,0.13731050145760107,0.0008541644254051007,1.0549262803902706,0.005000026607262785
0.157,0.017521248800416594,0.0,0.13727651784328562,0.0008235916341466529,1.0556172044767262,0.005000023749600841
0.158,0.01753072248462712,0.0,0.13724211453650095,0.0007941245707373925,1.0563081330152788,0.005000021199834702
0.159,0.017540196168837646,0.0,0.13720729222761854,0.000765702364795554,1.056999066000351,0.005000018923066409
0.16,0.01754966985304817,0.0,0.13717205030277987,0.0007382948086947045,1.057690003440084,0.005000016890623019
0.161,0.0175591435372587,0.0,0.13713638815065693,0.0007118716948084115,1.0583809453426185,0.005000015076707266
0.162,0.017568617221469223,0.0,0.13710030516213914,0.0006864028155102423,1.0590718917160953,0.0050000134581292075
0.163,0.01757809090567975,0.0,0.13706380073063426,0.0006618579631737641,1.0597628425686554,0.005000012014060409
0.164,0.017587564589890275,0.0,0.13702687425180363,0.0006382069301725445,1.0604537979084396,0.005000010725809082
0.165,0.017597038274100803,0.0,0.13698952512389914,0.0006154195088801504,1.0611447577435886,0.005000009576614611
0.166,0.017606511958311328,0.0,0.1369517527474144,0.0005934654916701495,1.0618357220822434,0.005000008551460051
0.167,0.017615985642521856,0.0,0.13691355652540937,0.000572314670916109,1.0625266909325448,0.005000007636901233
0.168,0.01762545932673238,0.0,0.13687493586330635,0.0005519368389915962,1.0632176643026336,0.005000006820911204
0.169,0.017634933010942908,0.0,0.13683589016905812,0.0005323017882701785,1.0639086422006507,0.0050000060927388006
0.17,0.017644406695153436,0.0,0.13679641885301608,0.000513379311125423,1.0645996246347371,0.005000005442780247
0.171,0.01765388037936396,0.0,0.1367565213280504,0.0004951391999308972,1.0652906116130334,0.005000004862462709
0.17200000000000001,0.01766335406357449,0.0,0.13671619520915637,0.0004775828892846473,1.065981603162626,0.005000004345060118
0.17300000000000001,0.017672827747785013,0.0,0.1366754414403353,0.00046067657045255084,1.0666725992756019,0.005000003883454789
0.17400000000000002,0.01768230143199554,0.0,0.13663426276026117,0.00044435872861968136,1.0673635999251754,0.00500000347063897
0.17500000000000002,0.017691775116206065,0.0,0.13659265903060153,0.00042861369205327124,1.0680546051148532,0.005000003101585668
0.176,0.017701248800416593,0.0,0.13655063011543628,0.00041342578902055335,1.0687456148481416,0.005000002771759643
0.177,0.017710722484627118,0.0,0.13650817588092656,0.0003987793477887592,1.069436629128547,0.005000002477072919
