Time [s],Lmtc [m],STIM [ ],Fsee [N],Gamma [ ],Lcerel [ ],q [ ]
0.0,0.0191391435372587,0.0,11.414694540088073,0.26118677749863317,1.1501428256999262,0.7862638211419284
0.001,0.0188991435372587,0.0,2.251248781094363,0.25171804942263376,1.1472637197729856,0.7634933512059797
0.002,0.0186591435372587,0.0,0.12172657121900544,0.24259260153024823,1.1387302051847017,0.7343027107057886
0.003,0.018419143537258702,0.0,0.0,0.23379799747241653,1.128259521225624,0.701145937951735
0.004,0.0181791435372587,0.0,0.0,0.22532220926904764,1.1177546817726929,0.6657145475599837
0.005,0.0179391435372587,0.0,0.0,0.21715374652570582,1.1072547952605698,0.6283304986376944
0.006,0.0176991435372587,0.0,0.0,0.20928136650671275,1.0967564091325104,0.5893654720114925
0.007,0.0174591435372587,0.0,0.0,0.20169442413638566,1.086258365849037,0.5492698509058496
0.008,0.0172191435372587,0.0,0.0,0.19438256219732328,1.075760997605503,0.5085525984422838
0.009000000000000001,0.016979143537258698,0.0,0.0,0.18733572861525155,1.0652647094095327,0.46775508002855115
0.01,0.0167391435372587,0.0,0.0,0.18054441746141833,1.0547721562949433,0.4274260492926109
0.011,0.0164991435372587,0.0,0.0,0.17399930545952552,1.0442875513196148,0.3880902300185377
0.012,0.0162591435372587,0.0,0.0,0.16769147974372767,1.0338213001371797,0.35022713548356593
0.013000000000000001,0.0160191435372587,0.0,0.0,0.16161234129665175,1.0233952687423689,0.3142529039694578
0.014,0.0157791435372587,0.0,0.0,0.15575359314073192,1.0130504542380874,0.2805093285294752
0.015,0.0155391435372587,0.0,0.0,0.15010724902524578,1.0028604772218976,0.24926207949140075
0.016,0.0152991435372587,0.0,0.0,0.14466560989404964,0.9929407413279868,0.22069765505660827
0.017,0.015143354063574487,0.0,0.0,0.13942125158880905,0.9834501395589094,0.19491912087571042
0.018000000000000002,0.015155985642521855,0.0,0.0,0.13436702306950224,0.9745676958505681,0.17193344912460334
0.019,0.015168617221469225,0.0,0.0,0.12949603004314558,0.9664491703114146,0.15164312597809065
0.02,0.015181248800416594,0.0,0.0,0.12480163088580348,0.9591870553478443,0.13385753392857713
0.021,0.015193880379363962,0.0,0.0,0.1202774233307437,0.9527968048643061,0.11832556706272854
0.022,0.01520651195831133,0.0,0.0,0.11591723745325032,0.947228596776742,0.10477420569387713
0.023,0.015219143537258699,0.0,0.0,0.11171512402080948,0.9423931347009189,0.09293961927101951
0.024,0.015231775116206067,0.0,0.0,0.10766535533890094,0.9381866549412369,0.08258468435414747
0.025,0.015244406695153435,0.0,0.0,0.10376240899523409,0.9345079084596866,0.07350477025997912
0.026000000000000002,0.015257038274100803,0.0,0.0,0.10000095844575588,0.9312658584486627,0.06552638366711987
0.027,0.015269669853048172,0.0,0.0,0.09637587662918058,0.9283834413720662,0.05850348451035548
0.028,0.01528230143199554,0.0,0.0,0.0928822176966492,0.925796577705576,0.05231268030434937
0.029,0.015294933010942908,0.0,0.0,0.08951522164720382,0.9234533335979864,0.046849258498783866
0.03,0.015307564589890276,0.0,0.0,0.08627028808390773,0.9213110534786473,0.04202353285030486
0.031,0.015320196168837646,0.0,0.0,0.08314300338678565,0.9193360118892735,0.037758426858888895
0.032,0.015332827747785015,0.0,0.0,0.08012908684446801,0.9175000028216245,0.03398697295412352
0.033,0.015345459326732383,0.0,0.0,0.07722444606971059,0.9157810206227295,0.030651008126843106
0.034,0.015358090905679751,0.0,0.0,0.07442510197586202,0.9141602692121898,0.027699509790922033
0.035,0.01537072248462712,0.0,0.0,0.07172725678747313,0.9126230325074146,0.025087819873728816
0.036000000000000004,0.015383354063574488,0.0,0.0,0.0691272059151196,0.9111564917200017,0.022776541084463725
0.037,0.015395985642521856,0.0,0.0,0.06662142176817615,0.909750560132595,0.020731035321730387
0.038,0.015408617221469224,0.0,0.0,0.06420648866396866,0.9083966490981429,0.018920695288412868
0.039,0.015421248800416593,0.0,0.0,0.06187910275885233,0.9070874564252485,0.01731846351130864
0.04,0.015433880379363961,0.0,0.0045173145004824885,0.05963609432110887,0.9058224076355739,0.015900691463335486
0.041,0.01544651195831133,0.0,0.08465089731423664,0.05747440416265385,0.9050020976791071,0.01466315950873261
0.042,0.0154591435372587,0.0,0.1907104571258935,0.05539108405557462,0.9047886196707169,0.013587547438897216
0.043000000000000003,0.015471775116206067,0.0,0.28694521313552696,0.05338329293683512,0.9049392278178906,0.012642849334701403
0.044,0.015484406695153436,0.0,0.2964055020551415,0.05144829243479929,0.9057918263028533,0.011822205331886906
0.045,0.015497038274100804,0.0,0.2819562686846905,0.049583443601759904,0.9068171366503147,0.011093727563919194
0.046,0.015509669853048172,0.0,0.26772005194885484,0.04778620300331653,0.9078435599660766,0.010442639646020865
0.047,0.01552230143199554,0.0,0.2549014483444956,0.04605412421525072,0.9088618919700138,0.009860609832172344
0.048,0.015534933010942909,0.0,0.2434204756418322,0.044384828875045995,0.9098721465022801,0.00934039599531767
0.049,0.015547564589890277,0.0,0.2331424526359922,0.042776062636810226,0.9108748316157901,0.008875519329705199
0.05,0.015560196168837645,0.0,0.2239455247481827,0.04122570209796975,0.9118704439509137,0.008460177505385406
0.051000000000000004,0.015572827747785014,0.0,0.2157151995832624,0.03973140975612859,0.9128595031514192,0.008089090428918555
0.052000000000000005,0.015585459326732382,0.0,0.20835495531280243,0.03829127387495348,0.913842453910687,0.007757614705987405
0.053,0.01559809090567975,0.0,0.20177611468819742,0.03690340162729021,0.9148197382567363,0.00746157223531425
0.054,0.01561072248462712,0.0,0.19589665476434215,0.03556590018598453,0.9157917982175869,0.007197203883774409
0.055,0.015623354063574488,0.0,0.19064133800276956,0.034276908893128274,0.9167590675687028,0.006961137294824781
0.056,0.015635985642521857,0.0,0.1859458993852337,0.033034642223541896,0.9177219269427902,0.006750356511722039
0.057,0.015648617221469225,0.0,0.18175130228420172,0.03183730249023409,0.9186807472198109,0.006562151962399777
0.058,0.015661248800416593,0.0,0.17800811654698145,0.030683368694815364,0.9196358437487839,0.00639413389840154
0.059000000000000004,0.01567388037936396,0.0,0.1746697974229057,0.029571319838896236,0.9205875318787284,0.006244154081841483
0.06,0.01568651195831133,0.0,0.17169231414956188,0.028499634924087223,0.9215361269586633,0.006110283396513319
0.061,0.015699143537258698,0.0,0.16903449535073364,0.027466815876442695,0.9224819378647637,0.005990793855185014
0.062,0.015711775116206066,0.0,0.16666443565926525,0.026471452761151967,0.9234252027961503,0.005884145427104897
0.063,0.015724406695153435,0.0,0.16455096150751272,0.025512065554628476,0.9243661662891769,0.005788950119478541
0.064,0.015737038274100803,0.0,0.16266940115989273,0.024587446461568917,0.9253050218944998,0.005703990444606613
0.065,0.01574966985304817,0.0,0.16099601410945874,0.023696387686669994,0.9262419631627752,0.005628172997280643
0.066,0.01576230143199554,0.0,0.15950786251757862,0.022837681434628405,0.927177183644659,0.005560516731419276
0.067,0.015774933010942908,0.0,0.1581826950261831,0.022010119910140853,0.9281108768908074,0.005500142215604356
0.068,0.015787564589890276,0.0,0.15700346577373647,0.021212622836804904,0.9290431910573508,0.005446270296666265
0.069,0.015800196168837644,0.0,0.15595445740559377,0.020443931112597482,0.9299742654368369,0.005398190965124054
0.07,0.015812827747785016,0.0,0.15502291368770862,0.01970304391183187,0.9309042135600495,0.005355284960382303
0.07100000000000001,0.015825459326732384,0.0,0.15419750324337764,0.018989024238633148,0.9318331375387914,0.005317000230940821
0.07200000000000001,0.015838090905679753,0.0,0.15346711605506763,0.018300935097126388,0.9327611394848657,0.005282841389135748
0.073,0.01585072248462712,0.0,0.15282083064691324,0.017637839491436675,0.9336883215100755,0.005252364282768895
0.074,0.01586335406357449,0.0,0.15224788471101383,0.016998800425689062,0.9346147857262238,0.005225171034242189
0.075,0.015875985642521857,0.0,0.15173976407133616,0.016382955507214327,0.935540613120572,0.005200908422596094
0.076,0.015888617221469226,0.0,0.15129085140596743,0.015789382152452368,0.936465856683273,0.005179257780940785
0.077,0.015901248800416594,0.0,0.15089482270962631,0.015217263848535544,0.93739057715719,0.0051599378427067445
0.078,0.015913880379363962,0.0,0.15054664105117577,0.01466588294849176,0.9383148229916106,0.0051426997811361555
0.079,0.01592651195831133,0.0,0.15024131575275246,0.014134521805348934,0.9392386426358224,0.005127320341679048
0.08,0.0159391435372587,0.0,0.14997389518249393,0.013622462772134972,0.9401620845391128,0.005113599383081149
0.081,0.015951775116206067,0.0,0.14973946032240587,0.01312898820187779,0.9410851971507693,0.005101357632418015
0.082,0.015964406695153435,0.0,0.14953375570310778,0.012653440321091258,0.9420080225147918,0.005090436005171735
0.083,0.015977038274100804,0.0,0.14935449636161466,0.012195139694729577,0.9429305830429394,0.005080691503819963
0.084,0.015989669853048172,0.0,0.14919837247807188,0.011753343595005359,0.9438529115984099,0.00507199496587815
0.085,0.01600230143199554,0.0,0.14906334133227422,0.011327521091423381,0.9447750284028787,0.005064235007546867
0.08600000000000001,0.01601493301094291,0.0,0.14894736857766727,0.010917141253488423,0.9456969536780215,0.005057311612567333
0.08700000000000001,0.016027564589890277,0.0,0.14884842689452363,0.010521673150705261,0.9466187076455143,0.005051135048438873
0.088,0.016040196168837645,0.0,0.14876449477849998,0.010140585852578678,0.9475403105270324,0.00504562487604055
0.089,0.016052827747785013,0.0,0.1486935554638479,0.00977334842861344,0.9484617825442515,0.005040709045809519
0.09,0.01606545932673238,0.0,0.148633595981993,0.00941942994831433,0.9493831439188476,0.005036323074009822
0.091,0.01607809090567975,0.0,0.14858328238102375,0.009078368487806285,0.9503044080487038,0.005032410080428065
0.092,0.016090722484627118,0.0,0.14854216117493255,0.008749642629875555,0.9512255794625268,0.005028918455423558
0.093,0.016103354063574486,0.0,0.14850898743819546,0.008432761392781579,0.9521466706911705,0.00502580240111877
0.094,0.016115985642521858,0.0,0.14848300358387137,0.008127342389788642,0.9530676893573974,0.005023021968627352
0.095,0.016128617221469226,0.0,0.14846345284928042,0.007833003234161025,0.9539886430839702,0.005020541292022539
0.096,0.016141248800416595,0.0,0.14844957912309087,0.007549361539163014,0.9549095394936519,0.005018328198100309
0.097,0.016153880379363963,0.0,0.14844062679133435,0.0072760349180588935,0.9558303862092049,0.005016353849932114
0.098,0.01616651195831133,0.0,0.14843584060269976,0.007012640984112946,0.9567511908533921,0.005014592421704252
0.099,0.0161791435372587,0.0,0.14843446555304352,0.0067587973505894555,0.9576719610489762,0.005013020802484848
0.1,0.016191775116206068,0.0,0.1484360794743447,0.006514178725893372,0.9585927010589386,0.005011618652430305
0.101,0.016204406695153436,0.0,0.14844052802533467,0.0062783988559937075,0.9595134124424358,0.00501036741321576
0.10200000000000001,0.016217038274100804,0.0,0.1484473658255021,0.0060511172858951365,0.9604340996984658,0.005009250745800053
0.10300000000000001,0.016229669853048172,0.0,0.1484563168276745,0.005832059003532164,0.961354765616297,0.005008254332063982
0.10400000000000001,0.01624230143199554,0.0,0.1484671050006485,0.005620948996839297,0.9622754129851977,0.005007365318198718
0.105,0.01625493301094291,0.0,0.14847945431090523,0.005417512253751044,0.9631960445944362,0.0050065721745934
0.106,0.016267564589890277,0.0,0.1484930887066819,0.005221473762201906,0.964116663233281,0.005005864567879804
0.107,0.016280196168837646,0.0,0.14850773210482607,0.00503255851012639,0.9650372716910005,0.005005233244229689
0.108,0.016292827747785014,0.0,0.14852310838013186,0.004850491485459006,0.9659578727568628,0.005004669923053145
0.109,0.016305459326732382,0.0,0.14853911051337096,0.004675083730170873,0.966878467512425,0.00500416744576128
0.11,0.01631809090567975,0.0,0.1485556304917747,0.004506002317471951,0.9677990570490853,0.0050037189893873315
0.111,0.01633072248462712,0.0,0.14857250237114844,0.004342985635103714,0.9687196430428101,0.005003318667785002
0.112,0.016343354063574487,0.0,0.14858963817921883,0.004185845558566935,0.969640226382173,0.005002961390214454
0.113,0.016355985642521855,0.0,0.14860694992431261,0.004034393963362386,0.9705608079557474,0.005002642581713
0.114,0.016368617221469223,0.0,0.1486243495946707,0.003888442724990838,0.971481388652107,0.005002358134357152
0.115,0.016381248800416595,0.0,0.1486417491580851,0.003747803718953062,0.9724019693598255,0.005002104362682603
0.116,0.016393880379363963,0.0,0.14865906056170947,0.003612288820749831,0.9733225509674762,0.005001877962959352
0.117,0.01640651195831133,0.0,0.14867619573228041,0.0034817099058819154,0.974243134363633,0.005001675976036336
0.11800000000000001,0.0164191435372587,0.0,0.1486930665764995,0.0033558788498500884,0.9751637204368693,0.005001495753486429
0.11900000000000001,0.016431775116206068,0.0,0.1487095849816258,0.00323460752815512,0.9760843100757586,0.005001334926798733
0.12,0.016444406695153437,0.0,0.1487257043253338,0.0031177419072460173,0.9770049037500858,0.005001191421070972
0.121,0.016457038274100805,0.0,0.1487414668367298,0.0030051206890458824,0.9779255010331622,0.0050010633673259735
0.122,0.016469669853048173,0.0,0.1487567937987115,0.002896532900767451,0.9788461027185187,0.005000949040341628
0.123,0.01648230143199554,0.0,0.14877165989502525,0.0027918544915521075,0.9797667090608543,0.00500084699118521
0.124,0.01649493301094291,0.0,0.14878603980640634,0.002690961410541236,0.9806873203148687,0.005000755917356351
0.125,0.016507564589890278,0.0,0.14879990821105663,0.0025937296068762206,0.9816079367352613,0.005000674648992393
0.126,0.016520196168837646,0.0,0.14881323978500582,0.0025000350296984462,0.9825285585767314,0.005000602136246122
0.127,0.016532827747785014,0.0,0.14882600920259423,0.0024097536281492966,0.9834491860939785,0.0050005374377508635
0.128,0.016545459326732383,0.0,0.14883819113691465,0.0023227613513701565,0.984369819541702,0.005000479710092749
0.129,0.01655809090567975,0.0,0.14884976026031288,0.0022389341485024097,0.9852904591746015,0.005000428198214564
0.13,0.01657072248462712,0.0,0.148860691244935,0.002158147968687441,0.9862111052473761,0.005000382226680071
0.131,0.016583354063574487,0.0,0.14887096095153993,0.0020802856338326954,0.9871317579926574,0.005000341195339487
0.132,0.016595985642521856,0.0,0.14888059714555088,0.002005312727509273,0.9880524171297718,0.005000304607675017
0.133,0.016608617221469224,0.0,0.14888956599900421,0.0019330001035985102,0.9889730829992055,0.005000271924667558
0.134,0.016621248800416592,0.0,0.14889786135341793,0.0018632702607337208,0.9898937556624482,0.005000242738042528
0.135,0.01663388037936396,0.0,0.1489054770541763,0.0017960456975482167,0.9908144351809894,0.005000216680221786
0.136,0.01664651195831133,0.0,0.14891240695063088,0.0017312489126753104,0.9917351216163189,0.005000193420558688
0.137,0.016659143537258697,0.0,0.14891864489631548,0.0016688024047483148,0.9926558150299263,0.005000172661885543
0.138,0.016671775116206065,0.0,0.14892418474902477,0.001608628672400542,0.9935765154833012,0.005000154137351507
0.139,0.016684406695153437,0.0,0.14892902037103167,0.001550650214265305,0.9944972230379332,0.005000137607530117
0.14,0.016697038274100805,0.0,0.14893314562910565,0.0014947895289759159,0.995417937755312,0.005000122857776869
0.14100000000000001,0.016709669853048174,0.0,0.1489365543947829,0.0014409691151656876,0.9963386596969271,0.005000109695818266
0.14200000000000002,0.016722301431995542,0.0,0.14893924054443722,0.0013891114714679321,0.9972593889242684,0.005000097949554953
0.14300000000000002,0.01673493301094291,0.0,0.14894119795949007,0.0013391390965159628,0.9981801254988252,0.0050000874650624775
0.14400000000000002,0.01674756458989028,0.0,0.14894242052648388,0.0012909744889430916,0.9991008694820874,0.005000078104774287
0.145,0.016760196168837647,0.0,0.14894290634978194,0.0012445563170855115,1.000021620893075,0.005000069748732649
0.146,0.016772827747785015,0.0,0.14894266233679404,0.0011998420539591046,1.0009423796621129,0.005000062292463095
0.147,0.016785459326732383,0.0,0.14894167245950216,0.001156716189554287,1.0018631459508103,0.005000055630500073
0.148,0.01679809090567975,0.0,0.1489399353009418,0.0011151322252566547,1.0027839197735282,0.005000049679847526
0.149,0.01681072248462712,0.0,0.14893744944974852,0.0010750436624518036,1.0037047011446276,0.0050000443657829356
0.15,0.016823354063574488,0.0,0.14893421350019367,0.0010364040025253297,1.0046254900784701,0.005000039621091288
0.151,0.016835985642521856,0.0,0.14893022605239575,0.0009991667468628286,1.0055462865894162,0.005000035385362717
0.152,0.016848617221469225,0.0,0.14892548571213063,0.000963285396849897,1.0064670906918272,0.005000031604349311
0.153,0.016861248800416593,0.0,0.1489199910909803,0.0009287134538721304,1.0073879024000643,0.005000028229376863
0.154,0.01687388037936396,0.0,0.14891374080639413,0.0008954044193151246,1.0083087217284883,0.005000025216807535
0.155,0.01688651195831133,0.0,0.14890673348164968,0.000863311794564476,1.0092295486914606,0.00500002252754968
0.156,0.016899143537258698,0.0,0.14889896774597652,0.0008323890810057803,1.010150383303342,0.005000020126611227
0.157,0.016911775116206066,0.0,0.1488904422344799,0.0008025897800246336,1.011071225578494,0.005000017982693317
0.158,0.016924406695153434,0.0,0.14888115558828963,0.0007738673930066315,1.011992075531277,0.005000016067821021
0.159,0.016937038274100803,0.0,0.1488711079927758,0.000746207582140602,1.0129129331605404,0.0050000143589886865
0.16,0.01694966985304817,0.0,0.14886030119443394,0.0007195692630844852,1.0138337984494488,0.005000012833769089
0.161,0.016962301431995543,0.0,0.14884873321621073,0.0006938653341738152,1.0147546714187747,0.005000011469683876
0.162,0.01697493301094291,0.0,0.1488364037816425,0.0006690700997417031,1.0156755520722016,0.0050000102501209795
0.163,0.01698756458989028,0.0,0.1488233126202624,0.0006451578641212592,1.0165964404134122,0.005000009160094674
0.164,0.017000196168837647,0.0,0.14880945946749677,0.0006221029316455944,1.0175173364460897,0.005000008186098417
0.165,0.017012827747785016,0.0,0.14879484406463703,0.0005998796066478194,1.0184382401739174,0.005000007315969564
0.166,0.017025459326732384,0.0,0.1487794661589994,0.0005784621934610448,1.0193591516005782,0.005000006538765142
0.167,0.017038090905679752,0.0,0.1487633255038215,0.0005578249964183813,1.0202800707297552,0.005000005844647946
0.168,0.01705072248462712,0.0,0.14874642185825906,0.0005379423198529397,1.0212009975651315,0.005000005224782198
0.169,0.01706335406357449,0.0,0.14872875498745816,0.0005187884680978306,1.0221219321103903,0.00500000467123811
0.17,0.017075985642521857,0.0,0.1487103246625519,0.0005003377454861648,1.0230428743692146,0.00500000417690469
0.171,0.017088617221469225,0.0,0.14869113066060716,0.00048256445635105297,1.0239638243452878,0.005000003735410185
0.17200000000000001,0.017101248800416594,0.0,0.1486711727647719,0.00046544290502560567,1.0248847820422926,0.005000003341049582
0.17300000000000001,0.017113880379363962,0.0,0.14865045076412156,0.0004489473958429337,1.0258057474639122,0.005000002988718629
0.17400000000000002,0.01712651195831133,0.0,0.1486289644537813,0.0004330522331361477,1.0267267206138297,0.005000002673853868
0.17500000000000002,0.0171391435372587,0.0,0.14860671363486014,0.00041773172123835855,1.0276477014957284,0.005000002392378204
0.176,0.017151775116206067,0.0,0.1485836981145482,0.00040296016448267705,1.028568690113291,0.005000002140651554
0.177,0.017164406695153435,0.0,0.1485599167331741,0.000388738307857705,1.029489686480022,0.005000001915843187
0.178,0.017177038274100803,0.0,0.14853537036636058,0.0003750306596937889,1.0304106905889419,0.005000001714823502
0.179,0.01718966985304817,0.0,0.14851005971043782,0.0003618046700607231,1.0313317024349393,0.005000001534872774
0.18,0.01720230143199554,0.0,0.14848398465630402,0.0003490470138573111,1.0322527220210944,0.005000001373829758
0.181,0.017214933010942908,0.0,0.14845714510081146,0.00033674436598235644,1.0331737493504873,0.005000001229744142
