Time [s],Lmtc [m],STIM [ ],Fsee [N],Gamma [ ],Lcerel [ ],q [ ]
0.0,0.0186391435372587,0.0,10.604650287204828,0.2537898307055045,1.1146462619553503,0.7417751065777862
0.001,0.0184291435372587,0.0,2.6721425890762407,0.24458927226512026,1.1119591916558842,0.7161590274041891
0.002,0.0182191435372587,0.0,0.4234984875395196,0.23572227172933863,1.1043080857267953,0.6843986039779101
0.003,0.0180091435372587,0.0,0.0,0.22717673630714721,1.0941698308461278,0.6483515978232922
0.004,0.0177991435372587,0.0,0.0,0.2189410397131084,1.0836715188670603,0.6101730819648009
0.005,0.0175891435372587,0.0,0.0,0.21100384708393075,1.0731732935925613,0.5706158675676878
0.006,0.0173791435372587,0.0,0.0,0.20335446787396974,1.0626754669006833,0.5301617065755257
0.007,0.0171691435372587,0.0,0.0,0.19598240283911714,1.052178500170872,0.48933821194802146
0.008,0.0169591435372587,0.0,0.0,0.18887761233962647,1.0416838692737134,0.44869392579814227
0.009000000000000001,0.0167491435372587,0.0,0.0,0.18203036847535697,1.031193764131176,0.4087683124740852
0.01,0.0165391435372587,0.0,0.0,0.17543139284492476,1.0207162306240227,0.37006934972855665
0.011,0.0163291435372587,0.0,0.0,0.16907164900983915,1.010265207772919,0.33304723463130553
0.012,0.0161191435372587,0.0,0.0,0.16294247080249946,0.999870408574725,0.2980841257585172
0.013000000000000001,0.0159091435372587,0.0,0.0,0.15703550101642788,0.9895885669215672,0.2654878841126981
0.014,0.0156991435372587,0.0,0.0,0.15134268396519984,0.979518538445205,0.23549195531559697
0.015,0.015647038274100803,0.0,0.0,0.14585625560214124,0.9698014814776702,0.20824598835427824
0.016,0.01565809090567975,0.0,0.0,0.14056872976384494,0.9606094710195079,0.1838066033599259
0.017,0.015669143537258696,0.0,0.0,0.13547290041158017,0.9521118528818432,0.16212705912898365
0.018000000000000002,0.015680196168837646,0.0,0.0,0.1305618153322372,0.944434805008236,0.14306047540243783
0.019,0.015691248800416592,0.0,0.0,0.1258287771637321,0.9376315712175856,0.12638159892020812
0.02,0.01570230143199554,0.0,0.0,0.12126733150244537,0.9316818201784269,0.11182398889610397
0.021,0.015713354063574488,0.0,0.0006886959661286813,0.1168712561530321,0.9265129430639294,0.09911643632628653
0.022,0.015724406695153435,0.0,0.34297653998483557,0.11263455689662233,0.9229655056037476,0.08832130961154858
0.023,0.01573545932673238,0.0,0.7375093135573887,0.10855145535721089,0.9216456492742029,0.07933273272498025
0.024,0.015746511958311327,0.0,1.0144401839800639,0.10461638296758106,0.9212964179289987,0.07150726305114716
0.025,0.015757564589890277,0.0,1.212995060873339,0.10082397306331448,0.9213693014384603,0.06455608786838797
0.026000000000000002,0.015768617221469224,0.0,1.2727960512463017,0.09716905356998651,0.9219662406494654,0.05840586645469616
0.027,0.01577966985304817,0.0,1.1833973000116818,0.09364663987460402,0.9230858332979192,0.05296288894593766
0.028,0.01579072248462712,0.0,1.082392854579165,0.09025192832305004,0.9242608130982906,0.04805931397632953
0.029,0.015801775116206066,0.0,0.989586507460039,0.08698029293758527,0.9254213339030798,0.04363427939122569
0.03,0.015812827747785013,0.0,0.9052043285518935,0.0838272568701484,0.9265643915322702,0.039644877320745474
0.031,0.01582388037936396,0.0,0.8286462610943236,0.08078853914691234,0.9276900554924937,0.03605177573781652
0.032,0.01583493301094291,0.0,0.7593113449155228,0.07786009758208116,0.9287985466499403,0.03281862712129621
0.033,0.015845985642521855,0.0,0.6966145896682809,0.07503764388983518,0.9298901900066583,0.02991145276723313
0.034,0.0158570382741008,0.0,0.6399875449040138,0.07231748328284505,0.9309654284029082,0.027299495762781782
0.035,0.01586809090567975,0.0,0.5889027071475631,0.06969602528355218,0.9320247146976056,0.02495448435127854
0.036000000000000004,0.015879143537258698,0.0,0.5428734440491544,0.06716967941439791,0.9330685017496662,0.022850427745666264
0.037,0.015890196168837644,0.0,0.5014455282011047,0.06473495835733988,0.9340972760124866,0.020963599928539994
0.038,0.01590124880041659,0.0,0.464179703551555,0.06238838851356899,0.9351116506563348,0.01927233872158033
0.039,0.01591230143199554,0.0,0.4306816363665043,0.06012683206018891,0.9361121980906879,0.01775712721478121
0.04,0.015923354063574487,0.0,0.40059109014868294,0.05794732397180975,0.9370994914482275,0.016400293597889835
0.041,0.015934406695153433,0.0,0.37357949945815994,0.05584689922304167,0.9380741038616354,0.015185759542215602
0.042,0.015945459326732383,0.0,0.34934709240467376,0.05382265275875106,0.9390366112472884,0.014098963848301654
0.043000000000000003,0.01595651195831133,0.0,0.32761458188053694,0.05187172166400885,0.9399876332915357,0.013126735443203556
0.044,0.015967564589890276,0.0,0.30813227825899897,0.049991453749860706,0.9409277606325561,0.012257256463661588
0.045,0.015978617221469222,0.0,0.290675355257477,0.04817939334437649,0.941857568219615,0.011479922308267458
0.046,0.015989669853048172,0.0,0.27503937116907007,0.04643308477562608,0.9427776310019773,0.010785143277936851
0.047,0.016000722484627118,0.0,0.2610390312528972,0.04475011742618975,0.9436885188460968,0.010164278975883585
0.048,0.016011775116206065,0.0,0.24850566145554587,0.043128119422004396,0.9445908016035214,0.009609552203923627
0.049,0.016022827747785014,0.0,0.23728886172510488,0.04156484700262349,0.9454850225385829,0.009113998961703087
0.05,0.01603388037936396,0.0,0.22725505516041533,0.040058275063674785,0.9463716944841557,0.008671412452310047
0.051000000000000004,0.016044933010942907,0.0,0.2182820641889851,0.03860637850078605,0.9472513302731145,0.008276199739328177
0.052000000000000005,0.016055985642521853,0.0,0.2102578753794648,0.03720713220958501,0.9481244427383336,0.007923327908604874
0.053,0.016067038274100803,0.0,0.20308465857959804,0.03585866673240019,0.948991500096903,0.007608309463470759
0.054,0.01607809090567975,0.0,0.19667122771976647,0.03455895446872103,0.9498529791721334,0.007327075631371011
0.055,0.016089143537258696,0.0,0.19094156835061785,0.033306343387547746,0.9507092820877601,0.007076053092221972
0.056,0.016100196168837646,0.0,0.18582538430835613,0.03209919163862708,0.9515608088872224,0.006852029810935008
0.057,0.016111248800416592,0.0,0.18125719508230823,0.030935857371705757,0.9524079596139596,0.006652119787136301
0.058,0.01612230143199554,0.0,0.17717583843122522,0.02981470231818232,0.9532511333202093,0.00647373337044311
0.059000000000000004,0.016133354063574485,0.0,0.1735320573497338,0.028734238045428493,0.9540906519967582,0.006314570129431805
0.06,0.016144406695153435,0.0,0.17027770803402387,0.0276928191987183,0.9549268539640001,0.006172544319490007
0.061,0.01615545932673238,0.0,0.1673747982956249,0.026689136387622284,0.9557600050837363,0.006045831770056958
0.062,0.016166511958311328,0.0,0.16478727959605366,0.02572188022171102,0.9565903712177681,0.005932794104303554
0.063,0.016177564589890277,0.0,0.16248079083139627,0.024789741310555065,0.9574182182278971,0.0058319612777852775
0.064,0.016188617221469224,0.0,0.16042242546170218,0.023891410263724985,0.9582438119759245,0.005742015548262109
0.065,0.01619966985304817,0.0,0.15858590093735955,0.023025690945677486,0.9590673657684164,0.005661787047814284
0.066,0.016210722484627117,0.0,0.15694756609331167,0.022191258861476514,0.9598890763667299,0.005590216096317782
0.067,0.016221775116206066,0.0,0.15548785869110815,0.021387032390327212,0.9607091078722862,0.005526374787788425
0.068,0.016232827747785013,0.0,0.15418900685176182,0.020611980766876398,0.9615276126902367,0.005469434656183944
0.069,0.01624388037936396,0.0,0.15303374435746395,0.019865073225770892,0.9623447432257327,0.0054186526816409905
0.07,0.01625493301094291,0.0,0.1520052376404254,0.019145279001657512,0.9631606518839261,0.005373363070281302
0.07100000000000001,0.016265985642521855,0.0,0.15108754205606234,0.018451591583967687,0.9639754858486356,0.0053329711354027
0.07200000000000001,0.0162770382741008,0.0,0.15027071819184104,0.017783088116833896,0.9647893350786003,0.005296949032051615
0.073,0.016288090905679748,0.0,0.14954289581622587,0.01713870249982296,0.9656023109667812,0.005264816838451496
0.074,0.016299143537258698,0.0,0.14889595583214532,0.016517643156209974,0.9664144889981563,0.00523615886627763
0.075,0.016310196168837644,0.0,0.14832191136469156,0.015919118509270056,0.9672259446577042,0.005210602117808848
0.076,0.01632124880041659,0.0,0.1478128888111164,0.01534233698227831,0.9680367534304032,0.00518781219193558
0.077,0.01633230143199554,0.0,0.14736111077232847,0.014786506998509849,0.9688469908012316,0.005167489543911926
0.078,0.016343354063574487,0.0,0.14695888086630693,0.01425083698123978,0.9696567322551678,0.005149366073252263
0.079,0.016354406695153433,0.0,0.14660071475784436,0.013734616967701122,0.970466031486404,0.005133204535579387
0.08,0.016365459326732383,0.0,0.14628279777634814,0.013237051526340362,0.9712749256800736,0.00511878998091971
0.081,0.01637651195831133,0.0,0.14600084009597608,0.012757468280322839,0.9720834571975542,0.005105933796874695
0.082,0.016387564589890276,0.0,0.14575141028198196,0.012295267557625712,0.9728916599593191,0.005094468893165452
0.083,0.016398617221469222,0.0,0.14553109976989467,0.011849849686226134,0.9736995678858418,0.0050842454392337625
0.084,0.016409669853048172,0.0,0.14533651937246803,0.011420614994101266,0.9745072148975953,0.005075129193307756
0.085,0.01642072248462712,0.0,0.14516429616655832,0.011006963809228268,0.975314634915053,0.0050669999783563196
0.08600000000000001,0.016431775116206065,0.0,0.14501120292410605,0.010608314204705618,0.9761218605082982,0.005059750613396209
0.08700000000000001,0.016442827747785015,0.0,0.14487610129144685,0.010224189180643058,0.9769289030059471,0.005053286980941294
0.088,0.01645388037936396,0.0,0.14475642565640767,0.009853871851464807,0.9777357883890164,0.0050475209327121035
0.089,0.016464933010942907,0.0,0.14465084697257308,0.009496924468466903,0.9785425300590884,0.0050423781486820815
0.09,0.016475985642521854,0.0,0.14455804028504668,0.009152909282945397,0.9793491414177454,0.005037791909291315
0.091,0.016487038274100804,0.0,0.1444766841239689,0.008821388546196343,0.9801556358665698,0.005033702369046001
0.092,0.01649809090567975,0.0,0.14440545995734078,0.008501924509515785,0.9809620268071441,0.005030055892954045
0.093,0.016509143537258696,0.0,0.14434305170336334,0.008194079424199772,0.9817683276410503,0.005026804451149487
0.094,0.016520196168837646,0.0,0.14428814530186096,0.007897415541544358,0.9825745517698709,0.005023905067324026
0.095,0.016531248800416593,0.0,0.14423942834499795,0.007611495112845585,0.9833807125951882,0.005021319316841337
0.096,0.01654230143199554,0.0,0.14419670375926924,0.0073359940576256215,0.9841868121042132,0.005019013812542104
0.097,0.016553354063574485,0.0,0.144159251452162,0.007070406721254633,0.9849928576489629,0.005016957174489893
0.098,0.016564406695153435,0.0,0.14412647536550752,0.0068143962055550325,0.9857988553173098,0.005015122714930418
0.099,0.01657545932673238,0.0,0.14409790886539742,0.006567652252867683,0.986604809875851,0.005013486684080139
0.1,0.016586511958311328,0.0,0.1440730857008229,0.006329864605533446,0.9874107260911836,0.005012027774070582
0.101,0.016597564589890278,0.0,0.14405153993953462,0.006100723005893182,0.9882166087299049,0.005010726883785351
0.10200000000000001,0.016608617221469224,0.0,0.14403280591129583,0.005879917196287757,0.9890224625586117,0.005009566904268671
0.10300000000000001,0.01661966985304817,0.0,0.14401641815896005,0.005667136919058029,0.9898282923439014,0.005008532523157363
0.10400000000000001,0.016630722484627117,0.0,0.14400191139674437,0.0054620719165448615,0.9906341028523709,0.0050076100466798865
0.105,0.016641775116206067,0.0,0.14398901576050407,0.005264458404426184,0.9914398968482225,0.005006787429551639
0.106,0.016652827747785013,0.0,0.14397770159875106,0.005073992007582756,0.992245674633288,0.0050060537241198265
0.107,0.01666388037936396,0.0,0.14396767474223743,0.004890382252785824,0.9930514392222133,0.005005399208360947
0.108,0.01667493301094291,0.0,0.14395877454538744,0.00471340968399736,0.9938571922610102,0.005004815433980843
0.109,0.016685985642521856,0.0,0.1439508403969616,0.0045428548451793335,0.9946629353956904,0.005004294818870549
0.11,0.016697038274100802,0.0,0.14394371171440995,0.0043784982802937186,0.9954686702722657,0.005003830563985911
0.111,0.01670809090567975,0.0,0.14393722793872565,0.004220120533302485,0.996274398536748,0.005003416577466257
0.112,0.016719143537258698,0.0,0.1439312285306002,0.004067502148167602,0.9970801218351492,0.00500304740544995
0.113,0.016730196168837645,0.0,0.14392555296706674,0.003920423668851045,0.9978858418134807,0.005002718169076584
0.114,0.01674124880041659,0.0,0.14392005423368445,0.003778678524949013,0.998691559979355,0.0050024245336553
0.115,0.01675230143199554,0.0,0.14391477663782132,0.003642140573394254,0.999497275878235,0.005002162775106219
0.116,0.016763354063574487,0.0,0.14390955607876077,0.003510476634321041,1.0003029911931054,0.005001929171727155
0.117,0.016774406695153433,0.0,0.14390434434408203,0.0033835397251490195,1.0011087064184374,0.005001720746897
0.11800000000000001,0.01678545932673238,0.0,0.14389909322494196,0.0032611828632978356,1.0019144220487015,0.005001534824997812
0.11900000000000001,0.01679651195831133,0.0,0.14389375451595307,0.003143259066187134,1.002720138578369,0.005001369003056063
0.12,0.016807564589890276,0.0,0.1438882800153514,0.003029621351236562,1.003525856501911,0.0050012211247937866
0.121,0.016818617221469222,0.0,0.14388262152524556,0.002920122735865762,1.0043315763137979,0.005001089256914611
0.122,0.016829669853048172,0.0,0.14387673085188482,0.0028146162374943808,1.0051372985085008,0.005000971667459651
0.123,0.01684072248462712,0.0,0.14387055980577348,0.0027129548735420643,1.005943023580491,0.005000866806077739
0.124,0.016851775116206065,0.0,0.14386406020247028,0.0026149916614284577,1.0067487520242389,0.005000773286063757
0.125,0.01686282774778501,0.0,0.14385718386285212,0.0025205796185732063,1.0075544843342157,0.005000689868027674
0.126,0.01687388037936396,0.0,0.14384989297596174,0.0024295854818860963,1.0083602208985898,0.00500061545618768
0.127,0.016884933010942908,0.0,0.14384223633443968,0.0023419215038109815,1.009165961217122,0.005000549104638489
0.128,0.016895985642521854,0.0,0.14383416215487008,0.0022573879502947795,1.0099717058213715,0.005000489883690772
0.129,0.016907038274100804,0.0,0.14382565766879832,0.0021758902578121898,1.0107774548426982,0.00500043703980024
0.13,0.01691809090567975,0.0,0.14381671011110542,0.0020973338628379103,1.0115832084124619,0.005000389895614246
0.131,0.016929143537258697,0.0,0.143807306720375,0.002021624201846641,1.0123889666620223,0.005000347842792054
0.132,0.016940196168837643,0.0,0.14379743473888407,0.0019486667113130804,1.0131947297227397,0.00500031033543557
0.133,0.016951248800416593,0.0,0.14378708141307983,0.0018783668277119274,1.0140004977259733,0.005000276884086167
0.134,0.01696230143199554,0.0,0.14377623399343406,0.0018106299875178806,1.0148062708030836,0.0050002470502457505
0.135,0.016973354063574485,0.0,0.14376487973496843,0.0017453616272056392,1.0156120490854303,0.005000220441382645
0.136,0.016984406695153435,0.0,0.14375300589744044,0.0016824671832499022,1.016417832704373,0.005000196706385235
0.137,0.01699545932673238,0.0,0.1437405997453011,0.0016218520921253685,1.0172236217912716,0.005000175531428528
0.138,0.017006511958311328,0.0,0.14372765298748777,0.0015634436998454083,1.0180294164319263,0.005000156643246171
0.139,0.017017564589890274,0.0,0.14371417870804806,0.0015071948929191285,1.018835216492799,0.005000139804196509
0.14,0.017028617221469224,0.0,0.14370016178405165,0.0014529373948764027,1.0196410221298744,0.005000124766437029
0.14100000000000001,0.01703966985304817,0.0,0.14368559938643444,0.001400613948462269,1.020446833373007,0.005000111341311138
0.14200000000000002,0.017050722484627117,0.0,0.14367048868997268,0.0013501672964217656,1.0212526502520505,0.005000099358995434
0.14300000000000002,0.017061775116206067,0.0,0.14365482687319048,0.0013015401814999302,1.0220584727968587,0.005000088666754284
0.14400000000000002,0.017072827747785013,0.0,0.14363861111832926,0.001254675346441801,1.0228643010372855,0.00500007912733961
0.145,0.01708388037936396,0.0,0.1436218386115394,0.0012095155339924175,1.023670135003185,0.005000070617525625
0.146,0.017094933010942906,0.0,0.1436045065428748,0.0011660034868968148,1.024475974724411,0.005000063026768804
0.147,0.017105985642521856,0.0,0.1435866121063865,0.0011240819479000326,1.0252818202308176,0.005000056255983944
0.148,0.017117038274100802,0.0,0.14356815250013039,0.0010836936597471087,1.0260876715522584,0.005000050216427651
0.149,0.01712809090567975,0.0,0.1435491249262612,0.0010447813651830813,1.0268935287185874,0.005000044828681137
0.15,0.0171391435372587,0.0,0.14352952659105314,0.001007287806952988,1.0276993917596589,0.005000040021724697
0.151,0.017150196168837645,0.0,0.14350935470501922,0.0009711557278018677,1.0285052607053262,0.005000035732096653
0.152,0.01716124880041659,0.0,0.14348860648292,0.0009363278704747577,1.0293111355854434,0.005000031903130085
0.153,0.017172301431995537,0.0,0.14346728079148538,0.0009027704561941365,1.030117016412939,0.005000028486631985
0.154,0.017183354063574487,0.0,0.14344538137689813,0.0008704388638967418,1.0309229031506544,0.005000025438171126
0.155,0.017194406695153434,0.0,0.14342290681257436,0.0008392532662842225,1.0317287958145993,0.0050000227149054315
0.156,0.01720545932673238,0.0,0.14339985645539186,0.0008091805483987804,1.0325346944127747,0.0050000202828229595
0.157,0.01721651195831133,0.0,0.14337622966608785,0.0007801875952826169,1.0333405989531808,0.00500001811130556
0.158,0.017227564589890276,0.0,0.14335202580893014,0.0007522412919779334,1.034146509443819,0.0050000161728142156
0.159,0.017238617221469223,0.0,0.14332724425215118,0.0007253085235269315,1.0349524258926892,0.005000014442600577
0.16,0.017249669853048172,0.0,0.14330188436768088,0.0006993561749718126,1.035758348307793,0.005000012898442874
0.161,0.01726072248462712,0.0,0.14327594553123607,0.0006743511313547783,1.0365642766971306,0.005000011520404416
0.162,0.017271775116206065,0.0,0.14324942712238561,0.0006502602777180302,1.0373702110687029,0.005000010290613047
0.163,0.01728282774778501,0.0,0.14322232852447994,0.0006270504991037696,1.0381761514305108,0.005000009193059969
0.164,0.01729388037936396,0.0,0.14319464912485155,0.000604688680554198,1.0389820977905546,0.005000008213416493
0.165,0.017304933010942908,0.0,0.143166388314474,0.0005831417071115171,1.0397880501568355,0.005000007338867313
0.166,0.017315985642521854,0.0,0.14313754548838373,0.0005623764638179282,1.040594008537354,0.005000006557959011
0.167,0.017327038274100804,0.0,0.1431081200454622,0.000542359835715633,1.0413999729401109,0.005000005860462591
0.168,0.01733809090567975,0.0,0.14307811061667436,0.0005230977847007069,1.0422059433810456,0.005000005238501201
0.169,0.017349143537258697,0.0,0.14304751842480798,0.0005045396581931539,1.0430119198494785,0.005000004683136664
0.17,0.017360196168837643,0.0,0.14301634440943403,0.00048662923502278935,1.0438179023376768,0.005000004186355398
0.171,0.017371248800416593,0.0,0.14298458842576758,0.00046934909360901223,1.0446238908490988,0.005000003742131509
0.17200000000000001,0.01738230143199554,0.0,0.14295225033271713,0.0004526818123712217,1.0454298853872026,0.005000003345027472
0.17300000000000001,0.017393354063574486,0.0,0.142919329993002,0.00043660996972881664,1.0462358859554466,0.005000002990141032
0.17400000000000002,0.017404406695153436,0.0,0.1428858272730487,0.00042111614410119617,1.0470418925572893,0.005000002673056384
0.17500000000000002,0.017415459326732382,0.0,0.14285174204308373,0.0004061829139077592,1.0478479051961886,0.005000002389799344
0.176,0.01742651195831133,0.0,0.142817074177067,0.0003917928575679053,1.0486539238756032,0.0050000021367962106
0.177,0.017437564589890275,0.0,0.1427818235527843,0.0003779285535010326,1.049459948598991,0.005000001910836101
0.178,0.017448617221469225,0.0,0.14274599005179328,0.0003645725801265406,1.0502659793698106,0.005000001709036464
