Time [s],Lmtc [m],STIM [ ],Fsee [N],Gamma [ ],Lcerel [ ],q [ ]
0.0,0.0191391435372587,0.0,10.087710068673049,0.21261442792326102,1.151718227292442,0.657510660296462
0.001,0.0186991435372587,0.0,0.0,0.20490664649470375,1.1456822957286446,0.6243287464389259
0.002,0.0182591435372587,0.0,0.0,0.19747830353439175,1.1351584593836237,0.5851965270261534
0.003,0.017819143537258702,0.0,0.0,0.19031926738647276,1.1246464113193426,0.5449956784255847
0.004,0.0173791435372587,0.0,0.0,0.18341977773039994,1.114143367565245,0.5042378058435325
0.005,0.0169391435372587,0.0,0.0,0.1767704223026682,1.1036465695277946,0.4634634246564022
0.006,0.0164991435372587,0.0,0.0,0.17036213300113318,1.0931544696759614,0.42321504105649227
0.007,0.0160591435372587,0.0,0.0,0.16418617167547564,1.0826712665027596,0.38401332405451155
0.008,0.015619143537258701,0.0,0.0,0.15823410929919693,1.0722077534261059,0.34633118197657303
0.009000000000000001,0.0151791435372587,0.0,0.0,0.15249783979343445,1.0617879316533625,0.3105778694722867
0.01,0.015160196168837646,0.0,0.0,0.14696953103601257,1.05145554444417,0.2770870650430919
0.011,0.015183354063574487,0.0,0.0,0.14164164600437623,1.041287980869082,0.2461159486995919
0.012,0.01520651195831133,0.0,0.0,0.1365069186907221,1.0314044305768004,0.21784178814375155
0.013000000000000001,0.015229669853048172,0.0,0.0,0.13155834511268702,1.0219633463314883,0.19235563931672922
0.014,0.015252827747785015,0.0,0.0,0.1267891794514881,1.0131382226487324,0.16965141649655027
0.015,0.015275985642521856,0.0,0.0,0.1221929149065952,1.005077930618491,0.14962168735582948
0.016,0.015299143537258699,0.0,0.0,0.11776328368501222,0.9978686657635818,0.13207031723407078
0.017,0.01532230143199554,0.0,0.0,0.1134942450876488,0.9915214516488917,0.11674477627832563
0.018000000000000002,0.015345459326732383,0.0,0.0,0.10937997698146268,0.9859852905368728,0.10337387473897701
0.019,0.015368617221469224,0.0,0.0,0.10541486576083225,0.9811710584616047,0.09169672402943087
0.02,0.015391775116206067,0.0,0.0,0.10159350792075703,0.9769762436904901,0.08147946247834749
0.021,0.015414933010942908,0.0,0.0,0.09791068985535611,0.9733010016102378,0.07252038339980099
0.022,0.015438090905679751,0.0,0.0,0.09436138909687451,0.9700561221146519,0.06464860645307735
0.023,0.015461248800416593,0.0,0.0,0.09094076611555207,0.9671657917521761,0.057720114403462336
0.024,0.015484406695153436,0.0,0.0,0.08764415019459748,0.9645668671992056,0.05161314300075264
0.025,0.015507564589890277,0.0,0.0,0.08446705672614427,0.9622087414783755,0.04622443781498277
0.026000000000000002,0.01553072248462712,0.0,0.0,0.08140513921560082,0.9600491482994478,0.0414653630168774
0.027,0.015553880379363961,0.0,0.0,0.07845423474269402,0.9580550086673393,0.03725980106966938
0.028,0.015577038274100804,0.0,0.0,0.07561030759863802,0.9561985985163007,0.033541595005229734
0.029,0.015600196168837645,0.0,0.0,0.07286949118148861,0.9544580659253671,0.030253241163646277
0.03,0.015623354063574488,0.0,0.0,0.0702280291975839,0.9528148156656586,0.027344316816262725
0.031,0.01564651195831133,0.0,0.0,0.0676823459640063,0.9512544681922488,0.024770717037274494
0.032,0.01566966985304817,0.0,0.0,0.06522893948966964,0.9497641879937885,0.02249349522110073
0.033,0.015692827747785014,0.0,0.0,0.06286448693158926,0.9483340723763838,0.020478444164585455
0.034,0.015715985642521857,0.0,0.0,0.06058576418987603,0.9469555501449465,0.018695326163057413
0.035,0.0157391435372587,0.0,0.0,0.05838962898291207,0.9456211349601358,0.017117391636572582
0.036000000000000004,0.01576230143199554,0.0,0.0,0.05627313294510587,0.9443251879446193,0.015721086096909604
0.037,0.015785459326732382,0.0,0.0,0.0542333745690107,0.9430624427796996,0.014485505929284154
0.038,0.015808617221469225,0.0,0.0,0.05226754100954297,0.9418283683804056,0.013392150726203264
0.039,0.01583177511620607,0.0,0.0,0.05037299418488343,0.94061948883721,0.012424701435888514
0.04,0.015854933010942908,0.0,0.0,0.04854713173910277,0.9394325212837666,0.01156867032109294
0.041,0.01587809090567975,0.0,0.0034368577725989446,0.0467874619536939,0.938269153829767,0.01081135724324132
0.042,0.015901248800416594,0.0,0.12073598768408136,0.04509158734125452,0.9377094806543341,0.010154473724210392
0.043000000000000003,0.015924406695153437,0.0,0.26479070744831973,0.04345719512660117,0.9380971474587312,0.009590458838821512
0.044,0.015947564589890276,0.0,0.274092949269632,0.04188205632373976,0.939715470926673,0.009109954624155758
0.045,0.01597072248462712,0.0,0.26518156239302154,0.040364022843549625,0.9414702996495311,0.00868176067211374
0.046,0.015993880379363962,0.0,0.256495782192913,0.03890102543253758,0.9432245264888116,0.00829802463081079
0.047,0.016017038274100802,0.0,0.24867313625330573,0.03749106416304618,0.9449731431273201,0.007954094682047295
0.048,0.016040196168837645,0.0,0.24165260179745163,0.0361322429272894,0.9467163660912454,0.007645881304099016
0.049,0.016063354063574488,0.0,0.23535515560781597,0.034822733060351586,0.9484545926758035,0.007369710063979508
0.05,0.01608651195831133,0.0,0.2297050864422717,0.03356056748088643,0.9501882358547123,0.007122237466387743
0.051000000000000004,0.016109669853048174,0.0,0.2246404195279476,0.03234414945753963,0.9519176344138771,0.006900523971903073
0.052000000000000005,0.016132827747785013,0.0,0.22010291451740632,0.03117188225895688,0.9536431271392026,0.0067019150853002
0.053,0.016155985642521856,0.0,0.21603760950089496,0.030042169153783913,0.9553650528165939,0.006524016441546992
0.054,0.0161791435372587,0.0,0.21239240292589362,0.0289534134106664,0.9570837502319561,0.0063646706761516444
0.055,0.01620230143199554,0.0,0.2091269428415706,0.027904178023199482,0.9587994793035003,0.006221957947033946
0.056,0.016225459326732382,0.0,0.20620038071170718,0.026892855553450095,0.9605125202834346,0.006094125999875627
0.057,0.016248617221469225,0.0,0.20358081508997752,0.025918174396985846,0.9622230908724754,0.005979641648134247
0.058,0.016271775116206068,0.0,0.20123772316362248,0.02497886588800121,0.9639314079972403,0.005877122473219001
0.059000000000000004,0.016294933010942907,0.0,0.1991416998425222,0.024073661360690658,0.9656376885843468,0.005785322897091106
0.06,0.01631809090567975,0.0,0.1972643040795893,0.02320129214924867,0.9673421495604125,0.005703121731817796
0.061,0.016341248800416593,0.0,0.19558281563719518,0.02236060866751861,0.9690449647866535,0.005629521315292515
0.062,0.016364406695153436,0.0,0.19407693328992082,0.021550303567657657,0.9707462923000715,0.005563610135539527
0.063,0.016387564589890276,0.0,0.19272943237735105,0.02076930573754506,0.9724462674153382,0.005504588992571777
0.064,0.01641072248462712,0.0,0.19152525315346697,0.02001662793926629,0.9741450098183757,0.005451744446465788
0.065,0.016433880379363962,0.0,0.1904496656690842,0.01929128293490679,0.9758426391951056,0.005404433717023508
0.066,0.016457038274100805,0.0,0.18948822340915214,0.018592283486552032,0.97753927523145,0.005362078219032921
0.067,0.016480196168837644,0.0,0.18862672166121142,0.01791864235628747,0.9792350376133305,0.0053241576186222
0.068,0.016503354063574487,0.0,0.18785404721398416,0.01726945133984264,0.9809300201132466,0.005290208594224747
0.069,0.01652651195831133,0.0,0.18716233072106378,0.016643735409359123,0.982624288689367,0.005259811058098452
0.07,0.016549669853048173,0.0,0.18654299009318653,0.016040640993732605,0.9843179166928259,0.005232593767134042
0.07100000000000001,0.016572827747785013,0.0,0.18598910197692906,0.015459409467159443,0.9860109633933992,0.005208226984883062
0.07200000000000001,0.016595985642521856,0.0,0.18549381799166675,0.01489928220383601,0.9877034880608629,0.005186413725204717
0.073,0.0166191435372587,0.0,0.18505035393029928,0.014359500577958683,0.9893955499649932,0.005166886735601911
0.074,0.016642301431995542,0.0,0.1846519801205381,0.013839305963723812,0.9910872083755659,0.0051494057279503685
0.075,0.01666545932673238,0.0,0.18429325481260853,0.013338020940092036,0.9927785113067785,0.005133757439406372
0.076,0.016688617221469224,0.0,0.18397067229174813,0.012854884230902865,0.9944694895217948,0.005119747463067947
0.077,0.016711775116206067,0.0,0.1836798432240481,0.012389159296583793,0.9961601820147836,0.005107202167582088
0.078,0.01673493301094291,0.0,0.18341784071721476,0.01194028262421223,0.9978506146977217,0.005095970304021332
0.079,0.01675809090567975,0.0,0.1831817531794292,0.011507690700865589,0.9995408134825855,0.005085915552912833
0.08,0.016781248800416593,0.0,0.18296868220681803,0.011090820013621272,1.0012308042813516,0.005076915158855399
0.081,0.016804406695153436,0.0,0.18277574069250063,0.010689107049556694,1.0029206130059964,0.005068858676345382
0.082,0.01682756458989028,0.0,0.18260005115758754,0.010301988295749263,1.0046102655684965,0.005061646819383801
0.083,0.016850722484627118,0.0,0.1824387443037555,0.009928900239276386,1.0062997878808286,0.005055190407773931
0.084,0.01687388037936396,0.0,0.18229057533201315,0.009569382277211743,1.0079891911141403,0.005049411100648551
0.085,0.016897038274100804,0.0,0.18215426397912773,0.009222831641025891,1.009678486794698,0.005044236154560464
0.08600000000000001,0.016920196168837647,0.0,0.18202824536502646,0.008888783475163049,1.0113676890728618,0.00503960247542724
0.08700000000000001,0.016943354063574487,0.0,0.18191138891172523,0.00856682997111202,1.0130568081653786,0.0050354540787741885
0.088,0.01696651195831133,0.0,0.1818025662251895,0.008256563320361617,1.0147458542889947,0.005031740521918277
0.089,0.016989669853048173,0.0,0.18170065083161185,0.00795757571440064,1.0164348376604575,0.0050284163947888995
0.09,0.017012827747785016,0.0,0.18160451794871835,0.007669459344717896,1.0181237684965134,0.00502544085257395
0.091,0.017035985642521855,0.0,0.18151304429103723,0.007391806402802192,1.0198126570139094,0.005022777187344788
0.092,0.017059143537258698,0.0,0.18142510791007188,0.007124209080142335,1.0215015134293923,0.0050203924359515616
0.093,0.01708230143199554,0.0,0.18134058383144433,0.006866355459255928,1.0231903388614993,0.005018257836884924
0.094,0.01710545932673238,0.0,0.18125874853914084,0.00661778364669605,1.0248791399007524,0.00501634627100808
0.095,0.017128617221469224,0.0,0.18117910995393294,0.006378186931536501,1.0265679210287153,0.0050146346657839735
0.096,0.017151775116206067,0.0,0.18110123793770047,0.006147270556028877,1.0282566861649858,0.005013102317314477
0.097,0.01717493301094291,0.0,0.18102470275100208,0.0059247397624247805,1.0299454392291614,0.005011730574951922
0.098,0.017198090905679753,0.0,0.18094907503488225,0.005710299792975809,1.0316341841408394,0.005010502652102288
0.099,0.017221248800416592,0.0,0.18087392579768416,0.005503655889933563,1.0333229248196176,0.005009403452644974
0.1,0.017244406695153435,0.0,0.18079882640718464,0.005304513295549641,1.0350116651850936,0.0050084194118965785
0.101,0.017267564589890278,0.0,0.18072338786970138,0.005112596035054983,1.0367004087973346,0.005007538439721915
0.10200000000000001,0.01729072248462712,0.0,0.18064762851432745,0.004927700005634312,1.0383891554905815,0.005006749988741187
0.10300000000000001,0.01731388037936396,0.0,0.1805711600869162,0.004749421212630041,1.0400779088217642,0.005006043719093614
0.10400000000000001,0.017337038274100804,0.0,0.18049383783734196,0.004577556754878504,1.0417666701207675,0.005005411213474195
0.105,0.017360196168837647,0.0,0.18041551714540455,0.004411903731216037,1.0434554407174768,0.005004844875487828
0.106,0.01738335406357449,0.0,0.18033605352477297,0.004252259240478967,1.0451442219417773,0.005004337855691437
0.107,0.01740651195831133,0.0,0.1802553026273201,0.004098420381503631,1.0468330151235543,0.005003883983553001
0.108,0.017429669853048172,0.0,0.1801731202481377,0.003950184253126361,1.0485218215926932,0.0050034777049373785
0.109,0.017452827747785015,0.0,0.18008936233103912,0.0038073479541834887,1.050210642679079,0.005003114024747121
0.11,0.017475985642521855,0.0,0.18000388497461878,0.00366970858351135,1.051899479712597,0.005002788454364396
0.111,0.017499143537258698,0.0,0.17991654443915733,0.0035370632399462755,1.0535883340231322,0.0050024969635577956
0.112,0.01752230143199554,0.0,0.17982720353195128,0.00340921330401384,1.0552772068820477,0.005002235945521761
0.113,0.017545459326732384,0.0,0.17973598077086175,0.003286053029576599,1.0569660972154575,0.005002002346325712
0.114,0.017568617221469227,0.0,0.1796427135833697,0.0031672945085318184,1.0586550065290803,0.005001793066322946
0.115,0.017591775116206066,0.0,0.1795473589176967,0.003052803917682921,1.0603439352330188,0.005001605619383196
0.116,0.01761493301094291,0.0,0.1794498738063951,0.0029424474338333303,1.062032883737375,0.005001437761229056
0.117,0.017638090905679752,0.0,0.17935021536864437,0.0028360912337864687,1.0637218524522516,0.005001287467714966
0.11800000000000001,0.01766124880041659,0.0,0.1792483408132911,0.00273360149434576,1.0654108417877506,0.005001152914836997
0.11900000000000001,0.017684406695153435,0.0,0.17914420744143525,0.0026348443923146273,1.0670998521539747,0.005001032460359902
0.12,0.017707564589890278,0.0,0.1790377726492784,0.002539686104496495,1.0687888839610264,0.005000924626953117
0.121,0.01773072248462712,0.0,0.1789289939310415,0.0024479928076947834,1.0704779376190077,0.005000828086732677
0.122,0.01775388037936396,0.0,0.17881782888178657,0.0023596306787129163,1.0721670135380212,0.00500074164711104
0.123,0.017777038274100803,0.0,0.17870423520062423,0.0022744658943543183,1.0738561121281693,0.005000664237861906
0.124,0.017800196168837646,0.0,0.17858821715282897,0.002192409883973489,1.0755452333718012,0.005000594938610241
0.125,0.01782335406357449,0.0,0.178469773032373,0.002113311249573219,1.0772343773067081,0.0050005328669366555
0.126,0.01784651195831133,0.0,0.17834887207370653,0.002037049039551092,1.0789235442389329,0.005000477258433566
0.127,0.01786966985304817,0.0,0.1782255017935971,0.0019635354521569865,1.0806127343069152,0.0050004274507358185
0.128,0.017892827747785015,0.0,0.17809964978231874,0.00189268268564078,1.082301947649095,0.0050003828461884494
0.129,0.017915985642521857,0.0,0.17797130370491873,0.001824402938252351,1.0839911844039116,0.005000342905999471
0.13,0.017939143537258697,0.0,0.17784045130213413,0.0017586084082415777,1.085680444709805,0.005000307144862652
0.131,0.01796230143199554,0.0,0.17770708039153396,0.0016952112938583388,1.087369728705215,0.005000275126019077
0.132,0.017985459326732383,0.0,0.17757117886861296,0.0016341237933525119,1.0890590365285813,0.005000246456727766
0.133,0.018008617221469226,0.0,0.17743273470779547,0.0015752581049739756,1.0907483683183437,0.0050002207841170696
0.134,0.018031775116206065,0.0,0.17729173596361075,0.001518526426972608,1.0924377242129415,0.005000197791390032
0.135,0.01805493301094291,0.0,0.17714955301292024,0.0014638635824832118,1.0941270915728547,0.005000177203113316
0.136,0.01807809090567975,0.0,0.1770056503613889,0.00141122365528158,1.0958164753642,0.0050001587777756375
0.137,0.018101248800416594,0.0,0.17685487951891196,0.0013604457816358921,1.0975059232408055,0.005000142257992625
0.138,0.018124406695153437,0.0,0.17670114807067722,0.0013114766419818971,1.0991953991155097,0.005000127451299506
0.139,0.018147564589890277,0.0,0.17654835700671417,0.0012642629167553428,1.1008848669011513,0.005000114183644218
0.14,0.01817072248462712,0.0,0.17640040060357726,0.001218751286391978,1.102574290510569,0.0050001022977687075
0.14100000000000001,0.018193880379363963,0.0,0.17626116673556683,0.0011748884313275503,1.1042636338566014,0.0050000916517157065
0.14200000000000002,0.018217038274100802,0.0,0.17613453761634962,0.0011326210319978088,1.1059528608520872,0.005000082117453018
0.14300000000000002,0.018240196168837645,0.0,0.17602439097078645,0.0010918957688385014,1.1076419354098652,0.005000073579607697
0.14400000000000002,0.01826335406357449,0.0,0.17593460163661265,0.0010526593222853768,1.1093308214427737,0.005000065934302885
0.145,0.01828651195831133,0.0,0.17586904359629907,0.001014858372774184,1.1110194828636517,0.005000059088090379
0.146,0.01830966985304817,0.0,0.17583159243924332,0.0009784396007406692,1.1127078835853377,0.005000052956972359
0.147,0.018332827747785014,0.0,0.17582612825385455,0.0009433496866205819,1.1143959875206702,0.005000047465506036
0.148,0.018355985642521857,0.0,0.1758565389496827,0.0009095353108496708,1.116083758582488,0.0050000425459853165
0.149,0.018379143537258696,0.0,0.1759267240099047,0.0008769431538636838,1.11777116068363,0.005000038137693846
0.15,0.01840230143199554,0.0,0.17603757493837022,0.0008455290954875926,1.1194581857774604,0.005000034187418799
0.151,0.018425459326732382,0.0,0.176162186629764,0.0008152889691046519,1.1211450836270058,0.005000030652141897
0.152,0.018448617221469225,0.0,0.17631391491645626,0.0007861141164991634,1.1228317306065387,0.005000027480594386
0.153,0.01847177511620607,0.0,0.17649283909086436,0.0007579746172302243,1.1245181263054265,0.0050000246362758875
0.154,0.018494933010942908,0.0,0.1766990447848671,0.0007308405508569322,1.1262042703130357,0.005000022086149964
0.155,0.01851809090567975,0.0,0.1769326240038161,0.0007046819969383842,1.1278901622187336,0.0050000198003426885
0.156,0.018541248800416594,0.0,0.17719367516068496,0.000679469035033678,1.129575801611887,0.00500001775186425
0.157,0.018564406695153433,0.0,0.1774823031103012,0.0006551717447019108,1.131261188081863,0.005000015916352159
0.158,0.018587564589890276,0.0,0.1777986191836889,0.0006317602055021798,1.1329463212180286,0.005000014271834696
0.159,0.01861072248462712,0.0,0.17814274122232993,0.0006092044969935827,1.1346312006097505,0.005000012798513288
0.16,0.018633880379363962,0.0,0.17851479361250847,0.0005874746987352167,1.136315825846396,0.005000011478562568
0.161,0.018657038274100805,0.0,0.17891490731986162,0.0005665408902861791,1.1380001965173316,0.005000010295946913
0.162,0.018680196168837645,0.0,0.1793432199237665,0.0005463731512055676,1.139684312211925,0.005000009236252352
0.163,0.018703354063574488,0.0,0.17979987565203048,0.000526941561052479,1.1413681725195426,0.005000008286532748
0.164,0.01872651195831133,0.0,0.18028502541537542,0.0005082161993860112,1.1430517770295514,0.0050000074351692425
0.165,0.018749669853048174,0.0,0.18079882684211543,0.0004901671457652613,1.1447351253313187,0.005000006671741989
0.166,0.018772827747785013,0.0,0.18134143604180977,0.0004727644950996694,1.1464182170897836,0.005000005986913902
0.167,0.018795985642521856,0.0,0.18191134323345473,0.0004559873862100791,1.1481010672284877,0.005000005372664878
0.168,0.0188191435372587,0.0,0.1825087783050032,0.0004398185165373909,1.1497836747881778,0.005000004821883225
0.169,0.018842301431995542,1.0,0.18322204194562142,0.006201469334218841,1.1514652382196944,0.005023140007446963
0.17,0.018865459326732382,1.0,0.20217097491925778,0.02408879848327712,1.1529852849466078,0.006788722058864418
0.171,0.018888617221469225,1.0,0.32134071737115794,0.04165417454301311,1.1537610458385366,0.015268065020742167
0.17200000000000001,0.018911775116206068,1.0,0.5815797809277105,0.05890339227664056,1.1539258651589295,0.03550592287254072
0.17300000000000001,0.01893493301094291,1.0,0.9572606388290495,0.07584214221329412,1.1539347489747618,0.0709830728882679
0.17400000000000002,0.01895809090567975,1.0,1.491725042139873,0.09247601246181997,1.1537321110291956,0.12246290063854474
0.17500000000000002,0.018981248800416593,1.0,2.2466918023708775,0.10881049055510271,1.153260458901376,0.1876295776471402
0.176,0.019004406695153436,1.0,3.198546470002982,0.12485096512477359,1.152695299009417,0.2619973088216632
0.177,0.019027564589890276,1.0,4.282596623120032,0.14060272770658258,1.1521967174407834,0.3402893468971806
0.178,0.01905072248462712,1.0,5.449099408671324,0.1560709758905734,1.1518234875677809,0.417664223454117
0.179,0.019073880379363962,1.0,6.6580726898365095,0.1712608117549949,1.1515972822710938,0.49052147461987544
0.18,0.019097038274100805,1.0,7.875095555863475,0.1861772458444934,1.1515271601515664,0.55670974892844
0.181,0.019120196168837644,1.0,9.100144238572856,0.20082520021295008,1.1515780554548214,0.6152805276743567
