Time [s],Lmtc [m],STIM [ ],Fsee [N],Gamma [ ],Lcerel [ ],q [ ]
0.0,0.019639143537258697,0.0,11.982263181106651,0.28303372348455585,1.185943726966512,0.8476495610456706
0.001,0.0194391435372587,0.0,3.479438151198442,0.2727729541309873,1.1837864237144382,0.8304417628007119
0.002,0.019239143537258696,0.0,0.7769454339414832,0.26288417964750643,1.1768640848171195,0.8085118384418328
0.003,0.019039143537258697,0.0,0.06654616198921116,0.2533539138599216,1.167137201915956,0.7824009774817202
0.004,0.0188391435372587,0.0,0.0,0.24416915908473533,1.1566163932539253,0.7531745065383596
0.005,0.018639143537258696,0.0,0.0,0.23531752111774928,1.1460824324998766,0.7214179975547161
0.006,0.018439143537258697,0.0,0.0,0.22678658827452938,1.1355616020572972,0.6872952461252196
0.007,0.0182391435372587,0.0,0.0,0.21856485179838728,1.125051074336343,0.6510387971490672
0.008,0.018039143537258696,0.0,0.0,0.21064136645761578,1.1145477798790044,0.6129713870298122
0.009000000000000001,0.017839143537258698,0.0,0.0,0.20300519594858168,1.1040486638494615,0.5734975809678621
0.01,0.0176391435372587,0.0,0.0,0.19564577773818445,1.0935507659953527,0.5330906872085388
0.011,0.017439143537258697,0.0,0.0,0.188553183631143,1.083053715318329,0.49227560712439145
0.012,0.017239143537258698,0.0,0.0,0.18171772120866192,1.072558644789225,0.4515999349277431
0.013000000000000001,0.017039143537258696,0.0,0.0,0.17513006905385906,1.0620683680115734,0.41160563499183794
0.014,0.016839143537258697,0.0,0.0,0.16878125167263308,1.0515894213623629,0.37280250309529744
0.015,0.016639143537258698,0.0,0.0,0.1626626028428641,1.0411356931471585,0.3356461419208062
0.016,0.0164391435372587,0.0,0.0,0.15676578020045628,1.0307355472897262,0.3005239674961263
0.017,0.016239143537258697,0.0,0.0,0.15108274110749195,1.0204416751424956,0.2677478002503859
0.018000000000000002,0.016039143537258698,0.0,0.0,0.14560573483345657,1.0103429153960628,0.2375516163964829
0.019,0.015839143537258696,0.0,0.0,0.1403272927714948,1.0005712137378062,0.2100885056026106
0.02,0.015639143537258697,0.0,0.0,0.135240215690197,0.9912937940030775,0.1854227523057362
0.021,0.015439143537258698,0.0,0.0,0.13033756717301584,0.9826853135951813,0.16352053041721287
0.022,0.015239143537258698,0.0,0.0,0.12561265888466147,0.9748826485044345,0.14424698029397554
0.023,0.015039143537258697,0.0,0.0,0.1210590479006099,0.9679498007188572,0.1273842212313471
0.024,0.014839143537258698,0.0,0.0,0.11667052397231638,0.961875030837302,0.11266853605365924
0.025,0.014639143537258698,0.0,0.0,0.11244110310022874,0.9565903774694476,0.09982768936494703
0.026000000000000002,0.014649669853048171,0.0,0.0,0.10836501410506635,0.9519987538497783,0.0886070219844139
0.027,0.014660196168837646,0.0,0.0,0.10443670108889075,0.9479960551881781,0.0787818783519188
0.028,0.014670722484627119,0.0,0.0,0.10065080551850826,0.9444844654616252,0.07016009983567058
0.029,0.014681248800416593,0.0,0.0,0.09700216591302745,0.9413784996790279,0.06257946585038865
0.03,0.014691775116206066,0.0,0.0,0.09348579906703097,0.9386057276340233,0.0559031283276382
0.031,0.01470230143199554,0.0,0.0,0.09009692164087935,0.9361077581652206,0.05001561308905878
0.032,0.014712827747785014,0.0,0.0,0.08683089910051471,0.9338357382506333,0.04481825745271285
0.033,0.014723354063574487,0.0,0.0,0.08368328737142217,0.9317512390715511,0.04022671182983593
0.034,0.014733880379363962,0.0,0.0,0.08064978713658277,0.9298224387749248,0.03616799950279486
0.035,0.014744406695153435,0.0,0.0,0.07772626555544988,0.9280239332473571,0.03257883412058637
0.036000000000000004,0.014754933010942908,0.0,0.0,0.07490872982088764,0.9263347342278149,0.02940394668144229
0.037,0.014765459326732382,0.0,0.0,0.07219334990879205,0.9247380860044561,0.02659499736068576
0.038,0.014775985642521855,0.0,0.0,0.06957640049618852,0.9232195646271317,0.024109426042954886
0.039,0.01478651195831133,0.0,0.0,0.06705434301310402,0.9217680405947398,0.021909884121086326
0.04,0.014797038274100803,0.0,0.0,0.06462370454715625,0.9203734605141193,0.019963314747279602
0.041,0.014807564589890278,0.0,0.0,0.06228118784696261,0.9190279584801591,0.018240613490049632
0.042,0.01481809090567975,0.0,0.0,0.060023615020272245,0.9177249116238594,0.01671604943895756
0.043000000000000003,0.014828617221469224,0.0,0.0,0.05784786659750955,0.9164582893588582,0.015366809958467143
0.044,0.014839143537258698,0.0,0.0,0.055751004606873475,0.9152234532815886,0.014172779596516973
0.045,0.014849669853048171,0.0,0.0,0.053730188704150014,0.9140163648264852,0.013116141034462889
0.046,0.014860196168837646,0.0,0.0,0.05178259646128992,0.9128332021379084,0.012181070545744641
0.047,0.014870722484627119,0.0,0.0,0.04990560769835138,0.9116711018112719,0.011353623830452127
0.048,0.014881248800416592,0.0,0.0,0.048096699126702405,0.9105276123314215,0.01062145093221217
0.049,0.014891775116206067,0.0,0.0,0.04635338865214798,0.9094004071682295,0.009973591389065558
0.05,0.01490230143199554,0.0,0.0,0.044673227914492165,0.9082873713556022,0.009400324551216633
0.051000000000000004,0.014912827747785014,0.0,0.0,0.04305398258639614,0.9071869780526651,0.008893093330468338
0.052000000000000005,0.014923354063574487,0.0,0.0,0.04149347416305566,0.9060978435288032,0.008444309540856697
0.053,0.01493388037936396,0.0,0.0,0.039989578604611616,0.9050186782659883,0.00804724656270429
0.054,0.014944406695153435,0.0,0.0,0.03854014066562365,0.9039482151797508,0.007695924455206218
0.055,0.014954933010942908,0.0,0.0,0.03714321485913204,0.9028855453107152,0.0073850860619106284
0.056,0.014965459326732383,0.0,0.0,0.03579696857028176,0.9018299374273787,0.007110084948130374
0.057,0.014975985642521856,0.0,0.0,0.03449956918421776,0.9007806602982387,0.006866792760755073
0.058,0.014986511958311329,0.0,0.0,0.033249225010433946,0.8997370251648807,0.006651551527051687
0.059000000000000004,0.014997038274100804,0.0,0.0,0.032044162285143195,0.8986984055155249,0.006461118269565982
0.06,0.015007564589890277,0.0,0.0,0.03088275038520113,0.8976643244102926,0.006292636885590411
0.061,0.015018090905679751,0.0,0.0,0.02976347062928973,0.8966344084643357,0.0061435862330352555
0.062,0.015028617221469224,0.0,0.0,0.02868480433609102,0.8956082842928064,0.0060117269108482425
0.063,0.015039143537258697,0.0,0.0,0.02764528055032543,0.8945856067528815,0.005895076446729849
0.064,0.015049669853048172,0.0,0.0,0.026643414966064097,0.8935660454587036,0.005791874399478198
0.065,0.015060196168837645,0.0,0.0,0.025677787008909048,0.8925493163987935,0.005700565724991651
0.066,0.01507072248462712,0.0,0.0,0.024747169215230007,0.8915352435041007,0.005619787299055968
0.067,0.015081248800416593,0.0,0.0,0.02385033412139671,0.8905236507055743,0.0055483278762093295
0.068,0.015091775116206066,0.0,0.0,0.022986054263778883,0.8895143619341634,0.005485112017945278
0.069,0.01510230143199554,0.0,0.0,0.02215310344185581,0.8885072015953106,0.005429185671463209
0.07,0.015112827747785013,0.0,0.0,0.02135032541638745,0.8875020270132125,0.005379707036175241
0.07100000000000001,0.015123354063574488,0.0,0.0,0.02057664693909283,0.8864987320029886,0.005335933839073973
0.07200000000000001,0.015133880379363961,0.0,0.0,0.01983102467379804,0.8854972185160502,0.005297208664524363
0.073,0.015144406695153434,0.0,0.008311045352512134,0.019112431363904878,0.8845353386158649,0.005262992581571764
0.074,0.015154933010942909,0.0,0.05729901262797974,0.018419889967528434,0.8841493252501034,0.005233303936221137
0.075,0.015165459326732382,0.0,0.11124437490914715,0.017752456049514073,0.8841838850694014,0.005207348830261437
0.076,0.015175985642521856,0.0,0.1360293755458553,0.017109219349343344,0.8846765764505214,0.005184651948809841
0.077,0.01518651195831133,0.0,0.13946838332570546,0.016489302586198965,0.8854078201190029,0.005164611736020207
0.078,0.015197038274100804,0.0,0.13960633600377373,0.015891860332111638,0.8861736801257227,0.005146768838393491
0.079,0.015207564589890277,0.0,0.13938147080147864,0.01531607835073729,0.8869433196144877,0.005130862290632441
0.08,0.01521809090567975,0.0,0.13914998740899076,0.01476116945411271,0.8877130300238978,0.005116679798627512
0.081,0.015228617221469225,0.0,0.13894496408002902,0.014226392734752855,0.8884824662331101,0.005104034724810301
0.082,0.015239143537258698,0.0,0.13876964697927127,0.013710987171640076,0.8892515937293517,0.005092759730350082
0.083,0.015249669853048172,0.0,0.13862059906437135,0.013214253639105568,0.8900204478457266,0.005082706477456324
0.084,0.015260196168837645,0.0,0.13849520931371567,0.01273554040916683,0.8907890554396897,0.00507374307911964
0.085,0.015270722484627118,0.0,0.13839087783889495,0.012274195753841362,0.8915574433686955,0.005065751419966105
0.08600000000000001,0.015281248800416593,0.0,0.13830532325124223,0.011829649730687272,0.8923256352528014,0.00505862709944646
0.08700000000000001,0.015291775116206066,0.0,0.138236114596946,0.011401194944281125,0.893093656349723,0.005052274499532865
0.088,0.01530230143199554,0.0,0.1381813784920013,0.010988174850901483,0.8938615261398342,0.005046609046935122
0.089,0.015312827747785014,0.0,0.13813984057735737,0.010590092141980012,0.8946292578739157,0.005041557248874973
0.09,0.015323354063574487,0.0,0.1381102292702848,0.0102064495089484,0.8953968648027482,0.005037053169270891
0.091,0.015333880379363962,0.0,0.13809127518910885,0.009836749643238328,0.8961643601771125,0.005033037701408844
0.092,0.015344406695153434,0.0,0.13808171063598243,0.009480495236281476,0.8969317572477896,0.005029457904128375
0.093,0.01535493301094291,0.0,0.13808026913775812,0.009137188979509528,0.89769906926556,0.0050262663967655516
0.094,0.015365459326732382,0.0,0.13808568504464608,0.008806333564354162,0.8984663094812048,0.005023420808371805
0.095,0.015375985642521855,0.0,0.13809710000418554,0.008487496992455193,0.8992334868860489,0.005020883790886802
0.096,0.01538651195831133,0.0,0.13811423297370826,0.008180195127644313,0.9000006044302666,0.005018621516521096
0.097,0.015397038274100803,0.0,0.13813629214251655,0.007883961710352817,0.9007676704142172,0.005016603909336686
0.098,0.015407564589890278,0.0,0.13816280746277493,0.00759844066299045,0.9015346897705672,0.005014804804655843
0.099,0.01541809090567975,0.0,0.1381933089371361,0.007323275907966954,0.9023016674319827,0.005013200728117943
0.1,0.015428617221469224,0.0,0.13822732654685643,0.007058111367692071,0.9030686083311307,0.005011770636637628
0.101,0.015439143537258698,0.0,0.13826439018789932,0.006802590964575544,0.9038355174006775,0.00501049568201536
0.10200000000000001,0.015449669853048171,0.0,0.13830402961498972,0.006556358621027116,0.9046023995732896,0.005009358995495667
0.10300000000000001,0.015460196168837646,0.0,0.13834577439387416,0.00631905825945653,0.9053692597816335,0.005008345491669468
0.10400000000000001,0.015470722484627119,0.0,0.1383892867540449,0.0060903729575788705,0.906136101568434,0.0050074418432859025
0.105,0.015481248800416592,0.0,0.13843453730708424,0.005869970295118761,0.9069029252497056,0.005006636064381101
0.106,0.015491775116206067,0.0,0.13848122190371273,0.005657503387455181,0.907669734014405,0.0050059173967210635
0.107,0.01550230143199554,0.0,0.13852917239695625,0.005452717572229014,0.9084365296278567,0.005005276529387391
0.108,0.015512827747785014,0.0,0.13857822054184474,0.005255358187081144,0.9092033138553848,0.005004705108273715
0.109,0.015523354063574487,0.0,0.1386281979880053,0.00506517056965245,0.9099700884623136,0.005004195644009056
0.11,0.01553388037936396,0.0,0.1386789362737196,0.004881900057583816,0.9107368552139674,0.0050037414279299275
0.111,0.015544406695153435,0.0,0.1387302668207327,0.0047052919885161235,0.9115036158756704,0.005003336455495164
0.112,0.015554933010942908,0.0,0.1387820209301996,0.0045350917000902555,0.9122703722127469,0.005002975356573531
0.113,0.015565459326732383,0.0,0.13883407505075898,0.004371087464621101,0.9130371255177839,0.0050026534154739045
0.114,0.015575985642521856,0.0,0.1388864262322179,0.004213055407648178,0.9138038758232876,0.005002366383216786
0.115,0.01558651195831133,0.0,0.13893893691686204,0.004060678354133381,0.9145706245668392,0.0050021103032253525
0.116,0.015597038274100803,0.0,0.13899155490080353,0.00391378332853302,0.9153373722941472,0.005001881890257478
0.117,0.015607564589890276,0.0,0.13904422794068547,0.0037721973553033997,0.9161041195509203,0.005001678193046669
0.11800000000000001,0.015618090905679751,0.0,0.13909690375362063,0.003635747458900828,0.9168708668828669,0.0050014965626221245
0.11900000000000001,0.015628617221469226,0.0,0.13914953001704677,0.0035042606637816108,0.9176376148356957,0.0050013346233451295
0.12,0.015639143537258697,0.0,0.13920205436885,0.0033775639944020578,0.9184043639551154,0.0050011902464621736
0.121,0.015649669853048172,0.0,0.13925442440763483,0.0032554844752184725,0.9191711147868342,0.005001061525986714
0.122,0.015660196168837646,0.0,0.13930658769274137,0.0031378491306871623,0.9199378678765611,0.005000946756732575
0.123,0.015670722484627118,0.0,0.1393584917447847,0.003024484985264435,0.9207046237700043,0.005000844414332707
0.124,0.015681248800416592,0.0,0.1394100840460992,0.0029152190634065983,0.9214713830128726,0.005000753137087255
0.125,0.015691775116206067,0.0,0.1394613905170772,0.0028099528488385113,0.9222381453332459,0.005000671766459943
0.126,0.01570230143199554,0.0,0.1395123841895581,0.0027084650846120645,0.9230049110103516,0.0050005991712814
0.127,0.015712827747785013,0.0,0.13956303656919208,0.0026106190742823084,0.9237716803391206,0.005000534405654714
0.128,0.015723354063574488,0.0,0.1396133331436884,0.0025163016914300177,0.9245384534686836,0.00500047663694644
0.129,0.015733880379363963,0.0,0.1396632593919163,0.002425399809635966,0.9253052305481713,0.005000425117451655
0.13,0.015744406695153434,0.0,0.13971280078391368,0.0023378003024809267,0.9260720117267146,0.005000379176299722
0.131,0.01575493301094291,0.0,0.13976194278135273,0.002253390043545675,0.9268387971534441,0.005000338212058629
0.132,0.015765459326732383,0.0,0.139810670837393,0.0021720559064109836,0.9276055869774907,0.0050003016859861155
0.133,0.015775985642521854,0.0,0.1398589703971617,0.0020936847646576273,0.9283723813479852,0.005000269115878842
0.134,0.01578651195831133,0.0,0.1399068268979132,0.002018163491866379,0.9291391804140583,0.005000240070473759
0.135,0.015797038274100804,0.0,0.13995422576918368,0.0019453789616180135,0.9299059843248407,0.005000214164358651
0.136,0.01580756458989028,0.0,0.1400011613682122,0.001875251223575983,0.9306727931365493,0.0050001910641692135
0.137,0.01581809090567975,0.0,0.14004764573639603,0.0018076952824904809,0.9314396067215246,0.005000170468835348
0.138,0.015828617221469225,0.0,0.1400936582645591,0.0017425377155925478,0.9322064252916297,0.005000152083663945
0.139,0.0158391435372587,0.0,0.14013919559598528,0.001679708579450403,0.932973248879297,0.005000135676140014
0.14,0.01584966985304817,0.0,0.14018425437443835,0.001619137930632265,0.9337400775169589,0.005000121037094194
0.14100000000000001,0.015860196168837645,0.0,0.14022883124419178,0.0015607558257063525,0.9345069112370479,0.005000107978523351
0.14200000000000002,0.01587072248462712,0.0,0.14027292285009507,0.001504492321240885,0.9352737500719963,0.0050000963315942285
0.14300000000000002,0.015881248800416595,0.0,0.14031652583760407,0.0014502774738040809,0.9360405940542366,0.005000085944817003
0.14400000000000002,0.015891775116206066,0.0,0.14035963685281158,0.0013980413399641593,0.9368074432162011,0.0050000766823764115
0.145,0.01590230143199554,0.0,0.1404022525426122,0.0013477139762893403,0.9375742975903225,0.0050000684226087526
0.146,0.015912827747785015,0.0,0.14044436955464848,0.0012992254393478402,0.938341157209033,0.00500006105661379
0.147,0.015923354063574487,0.0,0.1404859845373546,0.001252505785707879,0.9391080221047651,0.005000054486991213
0.148,0.01593388037936396,0.0,0.1405270941401834,0.001207485071937676,0.9398748923099511,0.005000048626691969
0.149,0.015944406695153436,0.0,0.1405676950134072,0.00116409335460545,0.9406417678570237,0.005000043397975354
0.15,0.015954933010942907,0.0,0.14060778596783477,0.0011222695225448526,0.9414086487560079,0.00500003873243891
0.151,0.015965459326732382,0.0,0.14064738001026586,0.0010819909545038463,0.9421755348696721,0.005000034572832618
0.152,0.015975985642521857,0.0,0.14068646306947988,0.0010431407372904667,0.9429424263417803,0.0050000308583071406
0.153,0.015986511958311328,0.0,0.14072503457361019,0.0010056774146878303,0.943709323176031,0.005000027542165754
0.154,0.015997038274100803,0.0,0.14076309395349104,0.0009695595304790542,0.9444762253761226,0.005000024582387592
0.155,0.016007564589890277,0.0,0.1408006406425544,0.0009347456284472548,0.9452431329457541,0.005000021941192336
0.156,0.016018090905679752,0.0,0.14083767407690956,0.000901194252375549,0.9460100458886239,0.005000019584641367
0.157,0.016028617221469223,0.0,0.14087419369530094,0.0008688639460470533,0.9467769642084307,0.0050000174822727545
0.158,0.016039143537258698,0.0,0.1409101989392733,0.0008377132532448844,0.9475438879088729,0.005000015606767642
0.159,0.016049669853048173,0.0,0.14094568925292214,0.0008077007177521591,0.9483108169936493,0.005000013933645715
0.16,0.016060196168837644,0.0,0.14098066408308307,0.0007787848833519941,0.9490777514664583,0.005000012440987547
0.161,0.01607072248462712,0.0,0.14101512287933873,0.000750924293827506,0.9498446913309987,0.005000011109181798
0.162,0.016081248800416593,0.0,0.14104906509390303,0.0007240774929618116,0.9506116365909689,0.005000009920695315
0.163,0.016091775116206068,0.0,0.14108249018174998,0.0006982030245380275,0.9513785872500676,0.005000008859864344
0.164,0.01610230143199554,0.0,0.14111539760049815,0.0006732594323392703,0.9521455433119935,0.005000007912705149
0.165,0.016112827747785014,0.0,0.1411477944141242,0.0006492761780430784,0.9529125047016997,0.0050000070692133095
0.166,0.01612335406357449,0.0,0.14117967296716352,0.0006261328199941695,0.9536794714966265,0.005000006315171143
0.167,0.01613388037936396,0.0,0.1412110328614106,0.0006038033739663665,0.9544464436990655,0.005000005641229699
0.168,0.016144406695153435,0.0,0.14124187402229102,0.0005822652992908652,0.9552134213079884,0.005000005039072795
0.169,0.01615493301094291,0.0,0.14127219637806046,0.0005614960552988611,0.9559804043223666,0.0050000045012057
0.17,0.016165459326732384,0.0,0.1413019998599738,0.0005414731013215498,0.9567473927411719,0.005000004020879937
0.171,0.016175985642521856,0.0,0.14133128440212442,0.0005221738966901271,0.957514386563376,0.005000003592024266
0.17200000000000001,0.01618651195831133,0.0,0.14136004994171114,0.0005035759007357886,0.9582813857879501,0.005000003209181384
0.17300000000000001,0.016197038274100805,0.0,0.1413882964187066,0.00048565657278973003,0.9590483904138661,0.005000002867449971
0.17400000000000002,0.016207564589890276,0.0,0.14141602377607532,0.00046839337218314693,0.9598154004400955,0.005000002562431665
0.17500000000000002,0.01621809090567975,0.0,0.1414432319597473,0.00045176375824723506,0.9605824158656099,0.005000002290182633
0.176,0.016228617221469226,0.0,0.14146992091853094,0.00043574519031319063,0.9613494366893808,0.005000002047169379
0.177,0.016239143537258697,0.0,0.1414960906041108,0.0004203151277122082,0.96211646291038,0.0050000018302284845
0.178,0.01624966985304817,0.0,0.1415217409712417,0.00040545102977548387,0.9628834945275789,0.005000001636529952
0.179,0.016260196168837646,0.0,0.14154687197748997,0.00039113035583421355,0.9636505315399492,0.005000001463543906
0.18,0.016270722484627118,0.0,0.141571483583305,0.00037733056521959275,0.9644175739464624,0.005000001309010358
0.181,0.016281248800416592,0.0,0.14159557575220097,0.0003640291172628171,0.9651846217460902,0.005000001170911794
0.182,0.016291775116206067,0.0,0.14161914845047346,0.00035120347129508235,0.9659516749378042,0.005000001047448363
0.183,0.01630230143199554,0.0,0.14164220779780748,0.0003388577037505696,0.9667187334569909,0.005000000937251027
0.184,0.016312827747785013,0.0,0.14166474984688898,0.00032695686776867906,0.9674857973431544,0.005000000838736922
0.185,0.016323354063574488,0.0,0.1416867710440239,0.0003154735088630488,0.9682528666317479,0.005000000750573918
