Time [s],Lmtc [m],STIM [ ],Fsee [N],Gamma [ ],Lcerel [ ],q [ ]
0.0,0.019639143537258697,1.0,11.522620110615465,0.26123931458512056,1.1864654311694485,0.8118980077131481
0.001,0.019389143537258697,0.0,2.065827128659521,0.25981870259541595,1.183472556946103,0.8071880750145162
0.002,0.019139143537258697,0.0,0.055608790394291015,0.2503995728402301,1.1745988903833378,0.7815848844545491
0.003,0.018889143537258696,0.0,0.0,0.24132192583392686,1.1640466439991748,0.7522580733068898
0.004,0.018639143537258696,0.0,0.0,0.23257337932419836,1.1535004844445185,0.7204166035600779
0.005,0.018389143537258696,0.0,0.0,0.22414212424196764,1.1429695934047217,0.6862160283902643
0.006,0.018139143537258696,0.0,0.0,0.21601624668116412,1.1324514109830905,0.6498909960561121
0.007,0.017889143537258696,0.0,0.0,0.20818508345844725,1.121942924985767,0.6117679670723838
0.008,0.0176391435372587,0.0,0.0,0.2006379736401822,1.1114411222934972,0.5722549610135107
0.009000000000000001,0.0173891435372587,0.0,0.0,0.19336439797638233,1.100942901980441,0.5318270440899547
0.01,0.0171391435372587,0.0,0.0,0.18635450938333223,1.0904458774179944,0.4910079994212316
0.011,0.016889143537258698,0.0,0.0,0.1795987552699615,1.079950884769699,0.45034541865896294
0.012,0.016639143537258698,0.0,0.0,0.17308793266122294,1.069461007917452,0.4103808951160158
0.013000000000000001,0.016389143537258698,0.0,0.0,0.16681314327662009,1.0589823483446026,0.3716220922163924
0.014,0.016139143537258697,0.0,0.0,0.16076585000696128,1.048530011848234,0.33452370785265734
0.015,0.015889143537258697,0.0,0.0,0.15493778929205143,1.038131870518588,0.29946974339761495
0.016,0.015639143537258697,0.0,0.0,0.1493210227545503,1.0278425244112623,0.26677059305365103
0.017,0.015389143537258697,0.0,0.0,0.14390788658064982,1.0177518234440568,0.2366574902982943
0.018000000000000002,0.015139143537258697,0.0,0.0,0.13869099891116726,1.0079928676536738,0.2092807791458876
0.019,0.014889143537258696,0.0,0.0,0.13366324468604224,0.9987325281085305,0.184701124891094
0.02,0.014639143537258698,0.0,0.0,0.12881776667633274,0.9901427023767502,0.16288041043943444
0.021,0.01465230143199554,0.0,0.0,0.12414795776424847,0.9823581323928169,0.1436812777568913
0.022,0.014665459326732383,0.0,0.0,0.11964744856532314,0.9754421940045963,0.12688521786006415
0.023,0.014678617221469225,0.0,0.0,0.11531010146934242,0.9693821639088532,0.1122283622140795
0.024,0.014691775116206066,0.0,0.0,0.11112999980822039,0.964109496135458,0.09943892696629844
0.025,0.014704933010942908,0.0,0.0,0.10710144347171201,0.9595268103044229,0.08826300745521272
0.026000000000000002,0.014718090905679751,0.0,0.0,0.10321894178943078,0.9555305210481334,0.07847695839839679
0.027,0.014731248800416593,0.0,0.0,0.0994771941102393,0.95202287916332,0.06988935892616402
0.028,0.014744406695153435,0.0,0.0,0.09587110041414422,0.9489188882029939,0.062338752039866344
0.029,0.014757564589890276,0.0,0.0,0.09239574337828335,0.9461470155213966,0.05568901966309925
0.03,0.01477072248462712,0.0,0.0,0.08904638375715146,0.9436483914513002,0.04982497448238024
0.031,0.014783880379363961,0.0,0.0,0.08581844630671999,0.9413748211672965,0.044648455953641315
0.032,0.014797038274100803,0.0,0.0,0.08270754271395904,0.9392881779078793,0.04007546209442069
0.033,0.014810196168837645,0.0,0.0,0.079709413940596,0.9373564578617404,0.036033228718258314
0.034,0.014823354063574488,0.0,0.0,0.07681998773406803,0.9355547539329421,0.032458774052502824
0.035,0.01483651195831133,0.0,0.0,0.07403530713848665,0.9338618906551323,0.02929698280970977
0.036000000000000004,0.014849669853048171,0.0,0.0,0.07135159446928628,0.9322613245294574,0.02649971690721291
0.037,0.014862827747785013,0.0,0.0,0.06876516013270158,0.9307385925895578,0.024024555014189625
0.038,0.014875985642521856,0.0,0.0,0.06627250560355838,0.9292825843705401,0.02183428497405781
0.039,0.014889143537258698,0.0,0.0,0.06387022532888423,0.9278835838458624,0.01989601385491736
0.04,0.01490230143199554,0.0,0.0,0.06155501963296127,0.9265333213592828,0.0181806838757341
0.041,0.014915459326732381,0.0,0.0,0.05932376580963141,0.925225383440633,0.016662688943624375
0.042,0.014928617221469225,0.0,0.0,0.05717340845868399,0.9239539348366788,0.01531932678392018
0.043000000000000003,0.014941775116206066,0.0,0.0,0.055100981100534054,0.9227139460862045,0.014130503313426237
0.044,0.014954933010942908,0.0,0.0,0.05310371344076745,0.921501639419773,0.013078504866134055
0.045,0.01496809090567975,0.0,0.0,0.051178865846572504,0.9203133875317268,0.012147596748671576
0.046,0.014981248800416593,0.0,0.0,0.0493237678871391,0.9191459974249525,0.011323839416918297
0.047,0.014994406695153435,0.0,0.0,0.04753593785724888,0.9179970675168158,0.010594942348362162
0.048,0.015007564589890277,0.0,0.0,0.04581294907617185,0.9168643898032545,0.009950003036759827
0.049,0.015020722484627118,0.0,0.0,0.04415240884232386,0.9157459050536946,0.009379348652381088
0.05,0.015033880379363962,0.0,0.0,0.04255203403555604,0.9146399002063325,0.008874428730297335
0.051000000000000004,0.015047038274100803,0.0,0.0,0.04100970888226188,0.9135450812988962,0.00842770120524277
0.052000000000000005,0.015060196168837645,0.0,0.0,0.03952331760883488,0.9124601543691142,0.00803246336155621
0.053,0.015073354063574487,0.0,0.0,0.03809084826362496,0.9113840178835041,0.007682789871708322
0.054,0.01508651195831133,0.0,0.0,0.03671021662069417,0.9103155242034146,0.007373403632512335
0.055,0.015099669853048172,0.0,0.0,0.03537964302270411,0.909253986868277,0.007099688113772056
0.056,0.015112827747785013,0.0,0.0,0.03409735382258493,0.9081987285970368,0.00685754114911016
0.057,0.015125985642521857,0.0,0.0,0.032861575373266755,0.9071490721086394,0.006643319672970683
0.058,0.015139143537258698,0.0,0.0,0.03167061584507631,0.9061044291819538,0.006453803679297319
0.059000000000000004,0.01515230143199554,0.0,0.0,0.030522758501237958,0.9050642332410385,0.006286132294143864
0.06,0.015165459326732382,0.0,0.0,0.029416508048044417,0.904028114834836,0.006137797670057222
0.061,0.015178617221469223,0.0,0.0,0.02835039931788705,0.9029957314235009,0.006006575583680451
0.062,0.015191775116206067,0.0,0.0,0.027322967143157247,0.9019667404671872,0.00589049105594722
0.063,0.015204933010942908,0.0,0.0,0.026332833590201662,0.9009409121512949,0.005787800550677836
0.064,0.01521809090567975,0.0,0.0,0.025378513058954374,0.8999177876611736,0.005696946234380466
0.065,0.015231248800416593,0.0,0.0,0.02445873631274548,0.8988971621557003,0.005616566748766902
0.066,0.015244406695153435,0.0,0.0,0.02357232313134594,0.8978789534741237,0.005545460328105814
0.067,0.015257564589890277,0.0,0.0,0.022718093294526717,0.8968630794556929,0.0054825593048926785
0.068,0.015270722484627118,0.0,0.0,0.021894866582058775,0.8958494579396569,0.005426915892801945
0.069,0.015283880379363962,0.0,0.005124953468168128,0.021101466504135753,0.8948543594710988,0.005377716671707535
0.07,0.015297038274100803,0.0,0.06187566284038154,0.02033681444487712,0.8944348715556788,0.0053350302510904455
0.07100000000000001,0.015310196168837645,0.0,0.12795931561869558,0.01959988415371504,0.8945460486495174,0.005297859729255782
0.07200000000000001,0.015323354063574487,0.0,0.14894874297821678,0.018889670602883248,0.8952855319067,0.00526554362034248
0.073,0.01533651195831133,0.0,0.15086149189057554,0.018205205197255728,0.8962254310495367,0.005236941590862712
0.074,0.015349669853048172,0.0,0.1506233111169626,0.017545554453235315,0.8971869391140583,0.005211440217753666
0.075,0.015362827747785014,0.0,0.15022238450972183,0.016909820106149397,0.8981500823888088,0.005188684837965639
0.076,0.015375985642521855,0.0,0.14985588858976134,0.01629713046872336,0.899112884951144,0.005168378073628613
0.077,0.015389143537258699,0.0,0.14953374322649945,0.0157066556220038,0.900075245736772,0.005150256625763222
0.078,0.01540230143199554,0.0,0.14925488042668816,0.015137656493583363,0.9010371740735218,0.005134087272086476
0.079,0.015415459326732382,0.0,0.14901345281040315,0.014589213087208132,0.9019987276864758,0.0051196560210168916
0.08,0.015428617221469224,0.0,0.1488058222421913,0.014060603874427322,0.9029599423602317,0.00510677674144026
0.081,0.015441775116206067,0.0,0.14862877639618247,0.013551162064831656,0.9039208498052104,0.005095283796379489
0.082,0.015454933010942909,0.0,0.14847912045880704,0.01306022086801185,0.9048814817318331,0.005085028576537474
0.083,0.01546809090567975,0.0,0.14835367407727842,0.012587113493558632,0.9058418698505211,0.005075877861084103
0.084,0.015481248800416592,0.0,0.14824926864000876,0.012131173151062713,0.9068020458716956,0.005067712321523902
0.085,0.015494406695153435,0.0,0.1481633141323706,0.011691798961961953,0.9077620357517133,0.00506042624662896
0.08600000000000001,0.015507564589890277,0.0,0.1480941519000502,0.011268327736493108,0.9087218560985636,0.005053923933756408
0.08700000000000001,0.015520722484627119,0.0,0.1480397924209647,0.01086012752559881,0.9096815269124119,0.005048120303893819
0.088,0.01553388037936396,0.0,0.14799887132283554,0.010466700974893595,0.9106410619099561,0.005042941066068115
0.089,0.015547038274100804,0.0,0.1479700269402451,0.010087550729991984,0.9116004748078941,0.005038319521799569
0.09,0.015560196168837645,0.0,0.14795189973043282,0.009722179436508514,0.912559779322924,0.005034195839523208
0.091,0.015573354063574487,0.0,0.14794313175123144,0.009370089740057715,0.9135189891717437,0.005030516391796246
0.092,0.015586511958311329,0.0,0.14794236620114432,0.009030784286254118,0.9144781180710514,0.005027233150656663
0.093,0.015599669853048172,0.0,0.14794825694920044,0.008703767675694288,0.9154371796371207,0.005024303154219763
0.094,0.015612827747785014,0.0,0.14796060559678734,0.008388652306681683,0.9163961758808108,0.005021688873693255
0.095,0.015625985642521857,0.0,0.14797843325902582,0.008084881050584589,0.9173551167112887,0.005019355306109757
0.096,0.015639143537258697,0.0,0.14800120374057602,0.007792089220093671,0.9183140075615339,0.005017272658068937
0.097,0.01565230143199554,0.0,0.14802838094724363,0.00750991212789959,0.9192728538645265,0.0050154141729302805
0.098,0.015665459326732384,0.0,0.14805942880109568,0.007237985086693011,0.9202316610532465,0.005013755841529656
0.099,0.015678617221469224,0.0,0.148093811165438,0.0069759434091645955,0.9211904345606737,0.005012276137840415
0.1,0.015691775116206067,0.0,0.14813099177962857,0.006723422408005009,0.9221491798197881,0.005010955777741011
0.101,0.015704933010942907,0.0,0.14817043420327755,0.006480057395904913,0.9231079022635693,0.005009777499156059
0.10200000000000001,0.01571809090567975,0.0,0.14821187767379942,0.006245577733908299,0.9240666045365513,0.005008726282364786
0.10300000000000001,0.015731248800416594,0.0,0.1482550805818951,0.006019556395362303,0.925025289088687,0.005007787975659624
0.10400000000000001,0.015744406695153434,0.0,0.14829973343910363,0.005801657539157399,0.9259839590546717,0.005006950342078505
0.105,0.015757564589890277,0.0,0.1483456511242744,0.005591625454904514,0.9269426163111957,0.0050062027250622615
0.106,0.015770722484627117,0.0,0.14839264841886415,0.005389204432214561,0.927901262734949,0.005005535549665197
0.107,0.01578388037936396,0.0,0.14844053999982865,0.0051941387606984695,0.9288599002026215,0.00500494022009635
0.108,0.015797038274100804,0.0,0.148489140433252,0.005006172729967161,0.9298185305909036,0.0050044090260302635
0.109,0.015810196168837644,0.0,0.14853826416953997,0.004825050629631558,0.9307771557764851,0.005003935057046603
0.11,0.015823354063574487,0.0,0.14858772553965094,0.004650516749302583,0.9317357776360562,0.005003512124594232
0.111,0.01583651195831133,0.0,0.14863733875229013,0.00448231537859116,0.9326943980463069,0.005003134690910481
0.112,0.01584966985304817,0.0,0.14868694076290268,0.0043202049348833255,0.9336530186531551,0.005002797833638743
0.113,0.015862827747785014,0.0,0.14873662055577216,0.004164007935691138,0.9346116385587612,0.005002497272142721
0.114,0.015875985642521857,0.0,0.14878621020731117,0.004013409680782095,0.9355702594573346,0.005002228912548794
0.115,0.015889143537258697,0.0,0.14883565160937637,0.0038682366180079375,0.9365288819344233,0.00500198935583224
0.116,0.01590230143199554,0.0,0.1488848866155082,0.003728315195220412,0.9374875065755748,0.005001775546581329
0.117,0.01591545932673238,0.0,0.14893385704110457,0.0035934718602712635,0.938446133966337,0.005001584740613615
0.11800000000000001,0.015928617221469224,0.0,0.1489825046641593,0.0034635330610122356,0.9394047646922575,0.005001414475345785
0.11900000000000001,0.015941775116206067,0.0,0.149030771225625,0.003338325245295074,0.9403633993388841,0.0050012625427175005
0.12,0.015954933010942907,0.0,0.1490785984301896,0.003217674860971524,0.9413220384917645,0.005001126964480824
0.121,0.01596809090567975,0.0,0.14912592794719184,0.0031014083558933278,0.9422806827364465,0.005001005969677713
0.122,0.01598124880041659,0.0,0.14917270141136096,0.0029893521779122308,0.9432393326584777,0.005000897974138491
0.123,0.015994406695153434,0.0,0.14921891462801093,0.0028813968555209887,0.9441979882974394,0.005000801618895999
0.124,0.016007564589890277,0.0,0.149264557293531,0.0027773324330719455,0.9451566497544424,0.005000715596495803
0.125,0.016020722484627117,0.0,0.1493095908668702,0.002676995481159014,0.9461153174149028,0.005000638781633206
0.126,0.01603388037936396,0.0,0.14935399883428155,0.0025802715501606977,0.9470739914422733,0.005000570203993642
0.127,0.016047038274100804,0.0,0.149397764676211,0.0024870461904555018,0.9480326720000071,0.005000508991131356
0.128,0.016060196168837644,0.0,0.14944087186778396,0.0023972049524219295,0.9489913592515566,0.005000454359272368
0.129,0.016073354063574487,0.0,0.14948330387916203,0.0023106333864384857,0.949950053360375,0.00500040560489649
0.13,0.01608651195831133,0.0,0.1495250441757959,0.0022272170428836746,0.950908754489915,0.0050003620970421984
0.131,0.01609966985304817,0.0,0.14956607621892545,0.0021468414721360005,0.9518674628036293,0.005000323270281291
0.132,0.016112827747785014,0.0,0.14960638346591296,0.0020693922245739673,0.9528261784649712,0.005000288618313307
0.133,0.016125985642521858,0.0,0.14964594937063527,0.0019947548505760792,0.9537849016373932,0.0050002576881325944
0.134,0.016139143537258697,0.0,0.14968475738382225,0.0019228149005208407,0.9547436324843481,0.0050002300747237745
0.135,0.01615230143199554,0.0,0.14972281716184976,0.0018535102769687841,0.9557023709057529,0.005000205434813398
0.136,0.01616545932673238,0.0,0.1497601218114881,0.0017866930829012783,0.956661116968025,0.005000183430263326
0.137,0.016178617221469224,0.0,0.14979666179726972,0.0017222712027261497,0.9576198707641702,0.0050001637785996875
0.138,0.016191775116206068,0.0,0.14983243267018254,0.0016601707525796517,0.9585786323360793,0.0050001462319132104
0.139,0.016204933010942908,0.0,0.14986742998518118,0.0016003178485980373,0.9595374017256432,0.005000130567309668
0.14,0.01621809090567975,0.0,0.14990164930140812,0.0015426386069175599,0.9604961789747523,0.005000116584556826
0.14100000000000001,0.01623124880041659,0.0,0.1499350861820756,0.0014870591436744727,0.9614549641252975,0.005000104103931052
0.14200000000000002,0.016244406695153434,0.0,0.14996773619480128,0.001433505575005029,0.9624137572191697,0.005000092964249129
0.14300000000000002,0.016257564589890278,0.0,0.14999959491157933,0.001381904017045482,0.9633725582982593,0.0050000830210716616
0.14400000000000002,0.016270722484627118,0.0,0.1500306579088906,0.001332180585932085,0.9643313674044572,0.005000074145065221
0.145,0.01628388037936396,0.0,0.1500609207679142,0.0012842613978010925,0.9652901845796543,0.005000066220511132
0.146,0.016297038274100804,0.0,0.1500903790745631,0.001238072568788755,0.966249009865741,0.005000059143949551
0.147,0.016310196168837644,0.0,0.15011903877933483,0.0011936224386233383,0.9672078432005732,0.005000052834595228
0.148,0.016323354063574488,0.0,0.1501468938785863,0.0011507458658254362,0.9681666846421307,0.005000047195381494
0.149,0.01633651195831133,0.0,0.1501739427136881,0.00110939023634381,0.9691255342048107,0.005000042155721283
0.15,0.01634966985304817,0.0,0.15020018430140672,0.0010695116198264477,0.9700843918962901,0.005000037653171989
0.151,0.016362827747785014,0.0,0.15022561766487255,0.001031066085921338,0.9710432577242457,0.00500003363148721
0.152,0.016375985642521854,0.0,0.15025024183341162,0.0009940097042764684,0.9720021316963542,0.005000030040046542
0.153,0.016389143537258698,0.0,0.15027405584274273,0.0009582985445398277,0.9729610138202925,0.005000026833332376
0.154,0.01640230143199554,0.0,0.15029705873488444,0.0009238886763594037,0.9739199041037375,0.0050000239704504025
0.155,0.01641545932673238,0.0,0.1503192495581634,0.0008907361693831848,0.974878802554366,0.005000021414690762
0.156,0.016428617221469224,0.0,0.15034062736742396,0.0008587970932591591,0.9758377091798547,0.005000019133126866
0.157,0.016441775116206068,0.0,0.1503611912237968,0.0008280275176353147,0.9767966239878805,0.005000017096249146
0.158,0.016454933010942908,0.0,0.15038094019482057,0.00079838351215964,0.9777555469861203,0.0050000152776311264
0.159,0.01646809090567975,0.0,0.15039987335457614,0.0007698211464801229,0.9787144781822509,0.00500001365362534
0.16,0.01648124880041659,0.0,0.15041798978350548,0.0007422964902447518,0.979673417583949,0.005000012203086804
0.161,0.016494406695153434,0.0,0.1504352885686344,0.000715765613101515,0.9806323651988915,0.005000010907121873
0.162,0.016507564589890278,0.0,0.15045176933341328,0.0006901933497892136,0.9815913210294386,0.0050000097492566755
0.163,0.016520722484627118,0.0,0.15046743496129064,0.0006655720784589394,0.9825502850453175,0.005000008715873056
0.164,0.01653388037936396,0.0,0.15048228303780503,0.0006418192929287583,0.9835092572694677,0.005000007791642511
0.165,0.016547038274100805,0.0,0.15049631334654287,0.0006189104529955638,0.9844682377028446,0.005000006965282905
0.166,0.016560196168837645,0.0,0.15050952567776218,0.0005968210184562497,0.9854272263464037,0.005000006226621868
0.167,0.016573354063574488,0.0,0.1505219198284331,0.00057552644910771,0.9863862232011003,0.0050000055664956855
0.168,0.01658651195831133,0.0,0.1505334956021774,0.0005550022047468384,0.9873452282678895,0.005000004976656431
0.169,0.01659966985304817,0.0,0.15054425280922054,0.0005352237451705285,0.988304241547727,0.005000004449686768
0.17,0.016612827747785015,0.0,0.15055419126655836,0.0005161665301756744,0.989263263041568,0.0050000039789218735
0.171,0.016625985642521855,0.0,0.15056331079775767,0.0004978060195591699,0.9902222927503678,0.005000003558378006
0.17200000000000001,0.016639143537258698,0.0,0.15057161123314827,0.0004801176731179085,0.9911813306750819,0.005000003182687196
0.17300000000000001,0.01665230143199554,0.0,0.1505790924096866,0.0004630769506487841,0.9921403768166654,0.005000002847037649
0.17400000000000002,0.01666545932673238,0.0,0.15058575417097111,0.0004466593119486907,0.993099431176074,0.005000002547119403
0.17500000000000002,0.016678617221469225,0.0,0.15059159636740868,0.0004308402168145219,0.9940584937542628,0.0050000022790748526
0.176,0.016691775116206065,0.0,0.1505966188559398,0.0004155951250431719,0.9950175645521873,0.005000002039453772
0.177,0.016704933010942908,0.0,0.1506008215003439,0.00040089949643153376,0.9959766435708026,0.005000001825172452
0.178,0.01671809090567975,0.0,0.1506042074842632,0.00038675401146195926,0.996935730777845,0.005000001633817614
0.179,0.01673124880041659,0.0,0.15060677574248146,0.0003731399391375863,0.997894826183718,0.005000001462930084
0.18,0.016744406695153435,0.0,0.15060851913008436,0.0003599973323697022,0.9988539298598464,0.005000001309826033
0.181,0.016757564589890278,0.0,0.15060943710926003,0.0003473138715899348,0.9998130418114783,0.005000001172704631
0.182,0.016770722484627118,0.0,0.15060952914893527,0.00033507723722991207,1.0007721620438623,0.005000001049937672
0.183,0.01678388037936396,0.0,0.1506087947249535,0.00032327510972126195,1.0017312905622464,0.00500000094005434
0.184,0.016797038274100805,0.0,0.15060723331983716,0.0003118951694956123,1.002690427371879,0.005000000841727165
