Time [s],Lmtc [m],STIM [ ],Fsee [N],Gamma [ ],Lcerel [ ],q [ ]
0.0,0.0186391435372587,0.0,11.645582646185725,0.27933014982970267,1.11343165421015,0.7951589916804002
0.001,0.0184591435372587,0.0,3.9709560464229776,0.26920365018554554,1.1113596815415936,0.7736807423222262
0.002,0.0182791435372587,0.0,1.2132113065305359,0.2594442776347091,1.1051745156974653,0.7472731099820081
0.003,0.0180991435372587,0.0,0.31155568874175343,0.25003872241830505,1.0962814581370637,0.7165081275149443
0.004,0.0179191435372587,0.0,0.02997786502997094,0.24097415685018858,1.0861568897871643,0.6824271394330023
0.005,0.017739143537258698,0.0,0.0,0.23223821898957978,1.0756727088973312,0.645926011319017
0.006,0.0175591435372587,0.0,0.0,0.22381908426165065,1.0651744700646706,0.6076450090533763
0.007,0.0173791435372587,0.0,0.0,0.2157049865747418,1.0546761727244587,0.5680140745514555
0.008,0.0171991435372587,0.0,0.0,0.20788510900380477,1.0441782997709288,0.5275192284534479
0.009000000000000001,0.0170191435372587,0.0,0.0,0.20034884448847384,1.033681525817634,0.4866909473574581
0.01,0.0168391435372587,0.0,0.0,0.1930857441886291,1.0231869099678539,0.44607688045579025
0.011,0.0166591435372587,0.0,0.0,0.18608595583669518,1.0126976632820697,0.40621632198101393
0.012,0.0164791435372587,0.0,0.0,0.17933994382361076,1.0022212867875953,0.36761305660371885
0.013000000000000001,0.016299143537258698,0.0,0.0,0.1728384941442774,0.9917731620626112,0.33071397394119983
0.014,0.0161191435372587,0.0,0.0,0.16657275643777653,0.9813918259538871,0.2959032283815177
0.015,0.0159391435372587,0.0,0.0,0.16053417421619948,0.9711418884222056,0.263486986026719
0.016,0.0157591435372587,0.0,0.0,0.1547145148159763,0.9611252567819503,0.23369097690761367
0.017,0.01564230143199554,0.0,0.0,0.14910584432442803,0.9514836622428313,0.20665497513945774
0.018000000000000002,0.015651775116206065,0.0,0.0,0.14370050567484294,0.9423874015146279,0.18242526332055814
0.019,0.015661248800416593,0.0,0.0,0.13849113778236075,0.9339990909575596,0.16094426328563785
0.02,0.015670722484627118,0.0,0.0,0.1334706292264859,0.926437782342068,0.142057728805338
0.021,0.015680196168837646,0.0,0.27190953903667653,0.12863213483200983,0.9202423883148864,0.12576569269318538
0.022,0.01568966985304817,0.0,0.8915939138129708,0.12396905554459624,0.9176428885557311,0.11267660846172138
0.023,0.015699143537258698,0.0,1.283950948447793,0.11947503198225348,0.9168636939094906,0.10154481881707572
0.024,0.015708617221469223,0.0,1.5165070410690769,0.11514393523279333,0.9167889281588266,0.0916960991553022
0.025,0.01571809090567975,0.0,1.6454555092302647,0.11096985843913293,0.9170803877219637,0.08288042366817605
0.026000000000000002,0.015727564589890275,0.0,1.6022381196193756,0.10694710906036581,0.9179029150195571,0.0750438133986167
0.027,0.015737038274100803,0.0,1.4764262018938556,0.10307020076866448,0.918988115101808,0.0680096559865411
0.028,0.015746511958311327,0.0,1.3497692157151502,0.09933384620369114,0.9200933489507366,0.061643367295324505
0.029,0.015755985642521855,0.0,1.2329032000429747,0.09573295449447068,0.9211841619262608,0.05588216153043222
0.03,0.01576545932673238,0.0,1.1260289510927832,0.09226259762449497,0.9222577203392367,0.05067510597180071
0.031,0.015774933010942908,0.0,1.0285578347475044,0.08891809871803674,0.9233137704487318,0.04597485003290291
0.032,0.015784406695153436,0.0,0.9398779576905973,0.08569484965391923,0.9243522234185105,0.041736845224245846
0.033,0.01579388037936396,0.0,0.8593557785086873,0.08258833403092408,0.9253731924802906,0.03791947271738734
0.034,0.015803354063574488,0.0,0.7863654192477104,0.07959449386838119,0.9263769123968336,0.034484467358211694
0.035,0.015812827747785013,0.0,0.7203204638961098,0.0767092711856204,0.9273636179309012,0.03139623342533895
0.036000000000000004,0.01582230143199554,0.0,0.6606640919215092,0.07392869877988087,0.9283335847165002,0.02862191965162958
0.037,0.015831775116206065,0.0,0.6068369233167846,0.07124882378966135,0.9292872921803971,0.02613126927059993
0.038,0.015841248800416593,0.0,0.5583206023684083,0.0686660371314269,0.9302252320320379,0.023896788406070527
0.039,0.015850722484627117,0.0,0.5146354372407627,0.06617694914439978,0.9311479098612094,0.021893434575021874
0.04,0.015860196168837645,0.0,0.47534083697843255,0.0637781701678023,0.9320558312576982,0.02009828003636384
0.041,0.01586966985304817,0.0,0.44002988019719297,0.06146640066565307,0.9329495189679389,0.018490462990653225
0.042,0.015879143537258698,0.0,0.40831451031525984,0.059238339399205434,0.9338295915617684,0.017050989723191995
0.043000000000000003,0.015888617221469222,0.0,0.3798458228402516,0.05709098510130379,0.9346966377491572,0.01576278573834325
0.044,0.01589809090567975,0.0,0.3543069011192625,0.05502153206802276,0.9355512401531142,0.01461045332315548
0.045,0.015907564589890275,0.0,0.3314092871857597,0.05302717459543691,0.9363939813966485,0.013580020379320299
0.046,0.015917038274100802,0.0,0.3108907889366586,0.0511051470019099,0.9372254430865453,0.012658854879342825
0.047,0.015926511958311327,0.0,0.29250963382048784,0.04925275758703797,0.9380462316985563,0.011835571665979094
0.048,0.015935985642521855,0.0,0.2760487828856637,0.04746743971107642,0.9388569346512479,0.011099942424489972
0.049,0.015945459326732383,0.0,0.2613143107199399,0.04574687582857161,0.939658114176504,0.010442832703950475
0.05,0.015954933010942907,0.0,0.24812985829681383,0.04408874839406989,0.9404503325062087,0.009855996592359315
0.051000000000000004,0.015964406695153435,0.0,0.236335228697659,0.042490756691756094,0.9412341493756239,0.00933200765357073
0.052000000000000005,0.01597388037936396,0.0,0.2257867420893426,0.04095071968114669,0.9420101056301701,0.008864217300209292
0.053,0.015983354063574488,0.0,0.21635349638374263,0.0394663864972859,0.942778739907987,0.008446623440366077
0.054,0.015992827747785012,0.0,0.20792251247371907,0.03803586514592104,0.9435405329449771,0.008073928118140129
0.055,0.01600230143199554,0.0,0.20039019700801294,0.03665726363279946,0.9442959654770424,0.007741362210872327
0.056,0.016011775116206065,0.0,0.1936612943356842,0.035328689963668496,0.9450455182400855,0.007444638169543022
0.057,0.016021248800416592,0.0,0.18765019076401096,0.03404834165114014,0.9457896515270929,0.007179924205461182
0.058,0.016030722484627117,0.0,0.18228015381514817,0.032814363906257055,0.9465288024649334,0.006943770055140309
0.059000000000000004,0.016040196168837645,0.0,0.17748371996869933,0.03162498421396766,0.947263372590495,0.006733097709888129
0.06,0.01604966985304817,0.0,0.17320401104345828,0.03047870998407174,0.947993706923655,0.006545193815773441
0.061,0.016059143537258697,0.0,0.16938783966833293,0.029374048626369074,0.948720150484291,0.006377620644256997
0.062,0.016068617221469222,0.0,0.165985246264733,0.028309507550659446,0.9494430482922807,0.006228190439232624
0.063,0.01607809090567975,0.0,0.1629490753449464,0.02728359416674265,0.9501627453675012,0.0060949418030787905
0.064,0.016087564589890278,0.0,0.160237862298094,0.026294879756252366,0.950879554934013,0.00597612545763049
0.065,0.016097038274100802,0.0,0.15781979813941138,0.02534194962453203,0.9515937149900001,0.00587017597368735
0.066,0.01610651195831133,0.0,0.1556644615687052,0.024423508163903936,0.9523054644527077,0.005775704525976198
0.067,0.016115985642521855,0.0,0.1537454849354491,0.023538377141125662,0.9530150147585942,0.0056914779408000155
0.068,0.016125459326732382,0.0,0.15203754222494748,0.0226853783229548,0.9537225773441175,0.0056163904107131134
0.069,0.016134933010942907,0.0,0.15051620286833775,0.021863333476148928,0.9544283636457358,0.005549451255235282
0.07,0.016144406695153435,0.0,0.14915978914197608,0.021071136032508982,0.9551325650635529,0.005489779013340522
0.07100000000000001,0.01615388037936396,0.0,0.1479512418097003,0.020307619602528908,0.9558353324988975,0.00543658016743619
0.07200000000000001,0.016163354063574487,0.0,0.146874752137547,0.019571687537795587,0.9565368088478974,0.005389150009104412
0.073,0.01617282774778501,0.0,0.14591783966039662,0.018862421750285616,0.9572371070166038,0.005346868887655117
0.074,0.01618230143199554,0.0,0.14506831580561488,0.018178904151975567,0.9579363399110679,0.005309181173991953
0.075,0.016191775116206064,0.0,0.14431424206353274,0.017520216654842033,0.9586346204373406,0.005275589082624887
0.076,0.016201248800416592,0.0,0.14364389236860028,0.0168854411708616,0.959332061501473,0.0052456470301485945
0.077,0.016210722484627117,0.0,0.14304620458594447,0.016273684662677014,0.9600287710211618,0.005218957565150206
0.078,0.016220196168837644,0.0,0.14251542634159714,0.015684137672753423,0.9607248036947474,0.005195168571996427
0.079,0.016229669853048172,0.0,0.14204351288269054,0.015115851731859658,0.9614202387889521,0.005173959710943723
0.08,0.016239143537258697,0.0,0.14162513913699146,0.01456813203040063,0.9621151283790618,0.005155054038355118
0.081,0.016248617221469225,0.0,0.1412550412193196,0.01404028375878124,0.962809524540362,0.0051382032053901025
0.082,0.01625809090567975,0.0,0.14092800749685444,0.013531612107406395,0.9635034793481385,0.005123184695032273
0.083,0.016267564589890277,0.0,0.14063887055069424,0.013041422266681,0.964197044877677,0.005109799300821405
0.084,0.0162770382741008,0.0,0.1403825000324075,0.012569019427009963,0.9648902732042633,0.005097868829329239
0.085,0.01628651195831133,0.0,0.14015466844572258,0.012113759745151888,0.9655832073401285,0.005087235180455573
0.08600000000000001,0.016295985642521854,0.0,0.13995341707473244,0.01167498037889844,0.9662758669393076,0.005077756511919095
0.08700000000000001,0.016305459326732382,0.0,0.13977567922366657,0.011252039986854642,0.9669682833248087,0.005069306546150478
0.088,0.016314933010942907,0.0,0.13961926727472668,0.01084441673486939,0.967660478812108,0.005061774659216028
0.089,0.016324406695153434,0.0,0.13948200358739657,0.010451588788791568,0.968352475716682,0.0050550616870581174
0.09,0.01633388037936396,0.0,0.1393617189523347,0.01007303431447007,0.9690442963540069,0.0050490788120095345
0.091,0.016343354063574487,0.0,0.1392562512102841,0.00970823147775379,0.9697359630395591,0.005043746547731089
0.092,0.01635282774778501,0.0,0.1391634440349429,0.009356658444491624,0.9704274980888148,0.005038993815089592
0.093,0.01636230143199554,0.0,0.13908198996386217,0.00901789937370437,0.9711189150108719,0.00503475840801038
0.094,0.016371775116206067,0.0,0.13901076933715886,0.008691363336165473,0.9718102253863871,0.00503098253436695
0.095,0.01638124880041659,0.0,0.1389486124444456,0.008376586163649608,0.9725014413429526,0.005027616133353689
0.096,0.01639072248462712,0.0,0.13889470585592226,0.00807319099093283,0.9731925713094725,0.005024615310471886
0.097,0.016400196168837644,0.0,0.13884823755123887,0.007780800952791199,0.9738836237148505,0.005021940695604449
0.098,0.016409669853048172,0.0,0.1388083966919648,0.007499039184000772,0.9745746069879906,0.005019557006200922
0.099,0.016419143537258696,0.0,0.13877437341722035,0.007227528819337607,0.9752655295577967,0.005017432648778115
0.1,0.016428617221469224,0.0,0.13874535866318485,0.00696589299357776,0.9759563998531724,0.005015539355841542
0.101,0.01643809090567975,0.0,0.13872054400562148,0.006713754841497289,0.9766472263030219,0.005013851855505224
0.10200000000000001,0.016447564589890277,0.0,0.1386991492248188,0.006470744331334877,0.9773380170468697,0.005012347612969634
0.10300000000000001,0.0164570382741008,0.0,0.13868132082494697,0.006236598719791179,0.9780287705457609,0.005011007109304415
0.10400000000000001,0.01646651195831133,0.0,0.13866641439764388,0.006010858331168176,0.97871949352572,0.005009811780949151
0.105,0.016475985642521854,0.0,0.1386541555792896,0.0057932595061168666,0.9794101888486872,0.005008746116484358
0.106,0.01648545932673238,0.0,0.1386442701360793,0.0055835385852882405,0.9801008593766027,0.005007796195598923
0.107,0.016494933010942906,0.0,0.13863648393905223,0.005381431909333295,0.9807915079714068,0.005006949536416486
0.108,0.016504406695153434,0.0,0.13863052294215256,0.005186675818903029,0.9814821374950395,0.005006194956111293
0.109,0.01651388037936396,0.0,0.13862611316276535,0.004999006654648435,0.982172750809441,0.005005522443817532
0.11,0.016523354063574486,0.0,0.1386229806650669,0.0048181607572205095,0.9828633507765516,0.005004923044895271
0.111,0.016532827747785014,0.0,0.13862085154606787,0.0046438744672702495,0.9835539402583113,0.00500438875567287
0.112,0.01654230143199554,0.0,0.1386195286894836,0.004475913824993096,0.9842445213144301,0.005003912510911372
0.113,0.016551775116206067,0.0,0.13861905208284156,0.004314045810932007,0.9849350935268996,0.005003487991456052
0.114,0.01656124880041659,0.0,0.13861922795482384,0.004157995927003307,0.9856256589206712,0.005003109447978858
0.115,0.01657072248462712,0.0,0.13861996608078672,0.004007580177937479,0.9863162184386446,0.005002771963321193
0.116,0.016580196168837644,0.0,0.13862117623880862,0.0038626145684650063,0.9870067730237192,0.005002471125596105
0.117,0.01658966985304817,0.0,0.13862276820830963,0.0037229151033163718,0.9876973236187941,0.005002202979581147
0.11800000000000001,0.016599143537258696,0.0,0.13862465176829913,0.003588297787222058,0.9883878711667692,0.005001963982357995
0.11900000000000001,0.016608617221469224,0.0,0.1386267366966673,0.0034585786249125483,0.9890784166105435,0.005001750962878843
0.12,0.01661809090567975,0.0,0.13862893276903213,0.003333573621118327,0.9897689608930166,0.005001561085158736
0.121,0.016627564589890276,0.0,0.13863114975849702,0.0032130987805698737,0.9904595049570878,0.00500139181481141
0.122,0.0166370382741008,0.0,0.13863336107469018,0.0030970413622106027,0.9911500490806293,0.005001240980033578
0.123,0.01664651195831133,0.0,0.13863554575896672,0.0029851756102964077,0.9918405934826546,0.005001106491215388
0.124,0.016655985642521853,0.0,0.13863764282716975,0.0028773084342383045,0.9925311388004263,0.005000986531224531
0.125,0.01666545932673238,0.0,0.1386396269829581,0.0027733187131752522,0.9932216852982629,0.005000879556109783
0.126,0.01667493301094291,0.0,0.13864147292930146,0.002673085326246212,0.9939122332404833,0.005000784179032876
0.127,0.016684406695153434,0.0,0.13864315536865562,0.002576487152590142,0.994602782891406,0.0050006991553489845
0.128,0.01669388037936396,0.0,0.1386446490032573,0.0024834030713460037,0.9952933345153497,0.005000623368968349
0.129,0.016703354063574486,0.0,0.1386459285349582,0.0023937119616527563,0.9959838883766333,0.005000555819904572
0.13,0.016712827747785014,0.0,0.13864696866580803,0.0023072927026493596,0.9966744447395752,0.0050004956129206645
0.131,0.01672230143199554,0.0,0.1386477440978863,0.0022240241734747743,0.9973650038684942,0.005000441947189166
0.132,0.016731775116206066,0.0,0.13864822953383474,0.0021437852532679596,0.998055566027709,0.00500039410688776
0.133,0.01674124880041659,0.0,0.13864839967684411,0.0020664548211678756,0.9987461314815382,0.005000351452656701
0.134,0.01675072248462712,0.0,0.13864823250417732,0.0019919180955043046,0.9994367004600999,0.0050003134170411734
0.135,0.016760196168837643,0.0,0.13864776280448118,0.0019201223697915188,1.0001272725998802,0.0050002795222405414
0.136,0.01676966985304817,0.0,0.13864695215379272,0.0018508851738016717,1.0008178483024035,0.0050002492804263055
0.137,0.016779143537258696,0.0,0.13864579406263616,0.0017841301452551205,1.0015084276355117,0.005000222304751747
0.138,0.016788617221469224,0.0,0.1386442820430431,0.0017197809218722222,1.0021990106670473,0.005000198247559402
0.139,0.016798090905679748,0.0,0.13864240960841662,0.001657761141373334,1.0028895974648522,0.005000176796680041
0.14,0.016807564589890276,0.0,0.13864017027380868,0.0015979944414788135,1.0035801880967687,0.005000157672047277
0.14100000000000001,0.016817038274100804,0.0,0.1386375575558357,0.0015404044599090175,1.0042707826306394,0.005000140622604742
0.14200000000000002,0.01682651195831133,0.0,0.13863456497294696,0.0014849148343843038,1.0049613811343059,0.0050001254234840605
0.14300000000000002,0.016835985642521856,0.0,0.13863118604534314,0.001431449202625029,1.0056519836756108,0.005000111873433177
0.14400000000000002,0.01684545932673238,0.0,0.13862741429513878,0.0013799312023515505,1.0063425903223964,0.005000099792475786
0.145,0.01685493301094291,0.0,0.1386232432465745,0.001330284471284227,1.0070332011425043,0.005000089019783818
0.146,0.016864406695153433,0.0,0.13861866642577084,0.0012824326471434133,1.0077238162037774,0.005000079411746056
0.147,0.01687388037936396,0.0,0.13861368664799562,0.0012363547359812517,1.0084144354770048,0.005000070850371137
0.148,0.016883354063574486,0.0,0.13860830530668017,0.0011919431469419727,1.0091050589478505,0.0050000632138212766
0.149,0.016892827747785014,0.0,0.13860251637028875,0.0011491036584100835,1.0097956866795956,0.005000056396723574
0.15,0.016902301431995538,0.0,0.13859631854207338,0.0011077912232503977,1.0104863186860593,0.005000050312958797
0.151,0.016911775116206066,0.0,0.1385897105273683,0.001067960794327729,1.0111769549810599,0.005000044885039919
0.152,0.01692124880041659,0.0,0.1385826910333192,0.0010295673245068907,1.0118675955784164,0.005000040043307948
0.153,0.01693072248462712,0.0,0.13857525876919297,0.0009925657666526961,1.0125582404919473,0.005000035725195124
0.154,0.016940196168837643,0.0,0.1385674124460468,0.0009569110736299593,1.0132488897354717,0.005000031874550689
0.155,0.01694966985304817,0.0,0.1385591507770985,0.0009225581983034934,1.0139395433228082,0.005000028441024667
0.156,0.0169591435372587,0.0,0.13855047247752872,0.0008894620935381119,1.0146302012677755,0.005000025379505377
0.157,0.016968617221469223,0.0,0.13854137626452484,0.0008575777121986283,1.0153208635841924,0.00500002264960662
0.158,0.01697809090567975,0.0,0.13853186085742203,0.0008268600071498565,1.0160115302858777,0.00500002021520077
0.159,0.016987564589890276,0.0,0.13852192497757798,0.0007972639312566092,1.0167022013866498,0.005000018043994188
0.16,0.016997038274100804,0.0,0.1385115673484776,0.0007687444373837007,1.017392876900328,0.005000016107141606
0.161,0.017006511958311328,0.0,0.13850078669568058,0.0007412564783959441,1.0180835568407307,0.005000014378896382
0.162,0.017015985642521856,0.0,0.13848958174699885,0.000714755007158153,1.0187742412216767,0.00500001283629367
0.163,0.01702545932673238,0.0,0.13847795536326757,0.0006892454756710206,1.0194649300137921,0.00500001146155112
0.164,0.01703493301094291,0.0,0.13846590649834378,0.0006646393936649345,1.0201556232285716,0.00500001023369696
0.165,0.017044406695153433,0.0,0.138453434658415,0.0006409064398148588,1.0208463208717555,0.005000009137138393
0.166,0.01705388037936396,0.0,0.13844053958352687,0.0006180213505440739,1.0215370229466614,0.005000008158095388
0.167,0.017063354063574485,0.0,0.13842722101557198,0.00059595886227586,1.022227729456607,0.005000007284169412
0.168,0.017072827747785013,0.0,0.13841347869854861,0.0005746937114334979,1.02291844040491,0.005000006504214519
0.169,0.017082301431995538,0.0,0.13839931237842057,0.0005542006344402677,1.0236091557948883,0.00500000580821927
0.17,0.017091775116206066,0.0,0.13838472180320663,0.0005344543677194499,1.0242998756298596,0.005000005187198723
0.171,0.017101248800416594,0.0,0.13836970672292498,0.000515429647694325,1.0249905999131415,0.005000004633095725
0.17200000000000001,0.017110722484627118,0.0,0.13835426688959804,0.0004971012107881734,1.0256813286480517,0.005000004138690859
0.17300000000000001,0.017120196168837646,0.0,0.13833840205735415,0.00047944379342427525,1.0263720618379082,0.005000003697520347
0.17400000000000002,0.01712966985304817,0.0,0.13832211198226316,0.00046243213202591134,1.0270627994860286,0.005000003303801336
0.17500000000000002,0.0171391435372587,0.0,0.13830539642257092,0.0004460409630163618,1.0277535415957304,0.005000002952363966
0.176,0.017148617221469223,0.0,0.1382882551384021,0.0004302450228189075,1.0284442881703317,0.005000002638589694
0.177,0.01715809090567975,0.0,0.1382706878921034,0.0004150190478568281,1.02913503921315,0.005000002358355364
0.178,0.017167564589890275,0.0,0.13825269439356885,0.00040035506677371657,1.029825794728072,0.005000002108273981
