Time [s],Lmtc [m],STIM [ ],Fsee [N],Gamma [ ],Lcerel [ ],q [ ]
0.0,0.0181391435372587,1.0,14.064868103605951,0.39199903331391006,1.0743567411390327,0.9062390375864116
0.001,0.0180591435372587,1.0,9.552950312910273,0.40294241172883843,1.0736575854353303,0.9132171191390364
0.002,0.0179791435372587,1.0,6.8779446590803035,0.4136888208659027,1.0714695500423717,0.9189498446270689
0.003,0.0178991435372587,1.0,5.341550659098256,0.4242418056846025,1.0680613601215643,0.9237056739586176
0.004,0.0178191435372587,1.0,4.463834790475851,0.43460484845808833,1.0637738058074169,0.9277206870246011
0.005,0.017739143537258698,1.0,3.9594258455685796,0.44478136696650894,1.0588991014462534,0.9311734098291518
0.006,0.017659143537258698,1.0,3.667365373036503,0.4547747189479015,1.0536496721978064,0.9341902226602028
0.007,0.017579143537258698,1.0,3.498241006744281,0.4645882010628627,1.048165889291954,0.9368586800201055
0.008,0.017499143537258698,1.0,3.401377527255721,0.4742250504963484,1.0425373504620241,0.9392405415039448
0.009000000000000001,0.0174191435372587,1.0,3.34729682971389,0.4836884472338227,1.0368204447212601,0.9413807717981282
0.01,0.0173391435372587,1.0,3.31871008709015,0.4929815128276738,1.0310499129796926,0.9433131485843442
0.011,0.0172591435372587,0.0,3.305147443787202,0.49912802797387973,1.0252474532169726,0.9440670741253114
0.012,0.0171791435372587,0.0,3.2923118771241424,0.4810329876189971,1.0194434938141408,0.935982469703962
0.013000000000000001,0.0170991435372587,0.0,3.27395822452996,0.463593949409563,1.0136514489176711,0.9268239147605252
0.014,0.0170191435372587,0.0,3.250284290264316,0.44678699986189385,1.0078709920398763,0.9164764800136976
0.015,0.0169391435372587,0.0,3.2211885753516025,0.4305895741487064,1.0021024701602441,0.9048215942901029
0.016,0.0168591435372587,0.0,3.186531568114996,0.41497941121088955,0.9963463495759322,0.8917388531032533
0.017,0.0167791435372587,0.0,3.1457519538800685,0.3999349179316022,0.9906040646623758,0.8771097610104595
0.018000000000000002,0.0166991435372587,0.0,3.0982764495061876,0.3854360060974165,0.9848771527812256,0.8608223969614252
0.019,0.0166191435372587,0.0,3.0435973865821966,0.3714628849035362,0.9791671012284033,0.8427755386910645
0.02,0.0165391435372587,0.0,2.9812890781783628,0.35799611066853537,0.973475326217194,0.8228843008772557
0.021,0.0164591435372587,0.0,2.9110639129742997,0.34501754938247825,0.9678030604095217,0.8010876869834964
0.022,0.016379143537258698,0.0,2.832729345941249,0.33250968833942074,0.9621514602501335,0.7773549214328827
0.023,0.016299143537258698,0.0,2.746182801165589,0.32045522489791717,0.9565216312096787,0.7516915267988754
0.024,0.016219143537258698,0.0,2.6514903357914683,0.3088377626477421,0.9509144546897306,0.7241464122415224
0.025,0.016139143537258697,0.0,2.5488915491968895,0.2976414969349316,0.945330573555038,0.6948163452312877
0.026000000000000002,0.016143354063574488,0.0,4.727333250240135,0.2868511360088012,0.941141836715552,0.6651870410845989
0.027,0.016147564589890275,0.0,6.311904463651043,0.2764519697002223,0.9388176917029917,0.6360972707241906
0.028,0.016151775116206066,0.0,7.369029343427584,0.26642981620662964,0.9375507900232976,0.6070921599074421
0.029,0.016155985642521856,0.0,8.022882255846257,0.25677100651852136,0.9369404461243879,0.5780239358218838
0.03,0.016160196168837643,0.0,8.375361965609102,0.24746236794986048,0.9367683793139673,0.5488924785382959
0.031,0.016164406695153434,0.0,8.54339748327224,0.23849120528181014,0.9368505044067805,0.5197137138215049
0.032,0.016168617221469225,0.0,8.568997806547342,0.22984528677719418,0.9371233704354917,0.4906240467013928
0.033,0.01617282774778501,0.0,8.432357007002278,0.22151281461217678,0.9376126384801948,0.4618500824938831
0.034,0.016177038274100802,0.0,8.145275352821962,0.21348243069688044,0.9383075488963488,0.4335675391598481
0.035,0.016181248800416593,0.0,7.750328393088498,0.20574318356460397,0.9391595921485955,0.40589720305022475
0.036000000000000004,0.01618545932673238,0.0,7.298277204020641,0.1982845056676322,0.940107794903369,0.37893282148314916
0.037,0.01618966985304817,0.0,6.825209255476395,0.19109624722836763,0.9411074618669725,0.3527717573038979
0.038,0.01619388037936396,0.0,6.353115474312408,0.1841685870611201,0.9421300786035351,0.3275125773493714
0.039,0.016198090905679752,0.0,5.892658646712946,0.17749208414906256,0.9431611573103786,0.3032504299066197
0.04,0.01620230143199554,0.0,5.449633887226199,0.1710576294991994,0.9441920490497661,0.2800668029689399
0.041,0.01620651195831133,0.0,5.027432303037593,0.16485647460121997,0.9452168449699909,0.25802592451293965
0.042,0.01621072248462712,0.0,4.628244490034153,0.15888007710439184,0.9462307983359617,0.23717294889716442
0.043000000000000003,0.016214933010942907,0.0,4.253387934652523,0.15312040007627556,0.9472299900919863,0.2175356456628204
0.044,0.016219143537258698,0.0,3.9036858679061868,0.14756959920656737,0.9482108046657928,0.1991242368585089
0.045,0.01622335406357449,0.0,3.5795187182794406,0.14221987102581554,0.9491699358220753,0.181932745387401
0.046,0.016227564589890275,0.0,3.2801332400634085,0.13706413777172793,0.9501059913742129,0.16594425026603113
0.047,0.016231775116206066,0.0,3.004621193159255,0.13209541191350807,0.9510177811185165,0.15112948228787115
0.048,0.016235985642521857,0.0,2.7518232736786716,0.12730684711540902,0.9519046131137738,0.1374493614780142
0.049,0.016240196168837644,0.0,2.5198417646108955,0.12269174320352556,0.9527676237871725,0.1248577052667141
0.05,0.016244406695153434,0.0,2.3067669552070824,0.1182439870543921,0.9536083428918274,0.11330345836637105
0.051000000000000004,0.016248617221469225,0.0,2.1108376199921346,0.11395756025340241,0.9544283295294544,0.10273084993122245
0.052000000000000005,0.016252827747785012,0.0,1.9304708674120237,0.10982656883885547,0.9552290648082137,0.09308114196283969
0.053,0.016257038274100803,0.0,1.7642313214786705,0.10584520368501864,0.956011994059086,0.08429404157268626
0.054,0.016261248800416593,0.0,1.6111192916108765,0.10200819370746055,0.9567776073634209,0.07630964494064457
0.055,0.01626545932673238,0.0,1.47024078372773,0.09831037317637778,0.957526248089035,0.06906868763961065
0.056,0.01626966985304817,0.0,1.3407712096671682,0.09474664442911031,0.9582581909305824,0.06251332217693498
0.057,0.01627388037936396,0.0,1.222088196891682,0.09131201799852579,0.9589731514382518,0.056587729679584614
0.058,0.01627809090567975,0.0,1.1135634370358962,0.08800190079731274,0.9596709147055105,0.051239211599227286
0.059000000000000004,0.01628230143199554,0.0,1.0145719545973853,0.08481185410810627,0.9603513223431913,0.046417962716979524
0.06,0.01628651195831133,0.0,0.9245040271197228,0.08173751236917226,0.9610142426554864,0.042077120535816304
0.061,0.01629072248462712,0.0,0.8427480392527119,0.07877453034989197,0.9616596534972823,0.03817282517417065
0.062,0.016294933010942907,0.0,0.7686775659394172,0.07591892257956251,0.9622877287446697,0.03466469673195952
0.063,0.016299143537258698,0.0,0.7016899567040008,0.07316690953280228,0.9628987053477647,0.031515486616933076
0.064,0.01630335406357449,0.0,0.6412213167799836,0.07051471168422968,0.9634928202566837,0.02869073990461024
0.065,0.016307564589890276,0.0,0.5867249928979502,0.06795871365933377,0.9640704129542665,0.026158902359363467
0.066,0.016311775116206066,0.0,0.5376663803034799,0.06549522607870455,0.9646319689143273,0.023890950441850578
0.067,0.016315985642521857,0.0,0.49354911932226575,0.06312104657737667,0.9651779962633799,0.02186076007944482
0.068,0.016320196168837644,0.0,0.4539163929006127,0.0608330173606432,0.9657090085028955,0.020044480663978455
0.069,0.016324406695153434,0.0,0.41834944274200264,0.05862798063379719,0.9662255191343458,0.01842036786063985
0.07,0.016328617221469225,0.0,0.38645913176682184,0.05650292666156811,0.9667280788026819,0.01696875663716208
0.07100000000000001,0.016332827747785012,0.0,0.35787895871613,0.05445477274226773,0.9672173122850066,0.015671756159345084
0.07200000000000001,0.016337038274100803,0.0,0.33228100435799957,0.05248085042570877,0.9676938080763865,0.01451341240023436
0.073,0.016341248800416593,0.0,0.3093672702017207,0.05057855482518106,0.9681581535935271,0.013479306804784914
0.074,0.01634545932673238,0.0,0.2888670849887309,0.048745281053974396,0.9686109362531341,0.012556399498739535
0.075,0.01634966985304817,0.0,0.27053526078363777,0.0469785107966583,0.9690527400579662,0.011732960591738277
0.076,0.01635388037936396,0.0,0.254145603664806,0.04527570231625013,0.9694841782655427,0.010998405954934589
0.077,0.01635809090567975,0.0,0.2394976137604355,0.043634556349015,0.9699058281373201,0.010343305617504699
0.078,0.01636230143199554,0.0,0.22641175833306182,0.042052944086064886,0.9703182478003813,0.009759230687440643
0.079,0.01636651195831133,0.0,0.21472507577092548,0.040528736718511774,0.9707219953818091,0.009238592227620924
0.08,0.016370722484627117,0.0,0.20428952557296665,0.03905980543746765,0.9711176290086865,0.008774567901034425
0.081,0.016374933010942908,0.0,0.19497373387856531,0.037644173821579585,0.9715056777940823,0.008361076214638578
0.082,0.016379143537258698,0.0,0.1866566402188152,0.03627973303552132,0.971886682849012,0.007992621829720534
0.083,0.01638335406357449,0.0,0.1792353964255347,0.034964735004726716,0.9722611141608143,0.007664370659034124
0.084,0.016387564589890276,0.0,0.17261634837031264,0.0336974578224079,0.9726294369497201,0.007371987671881051
0.085,0.016391775116206066,0.0,0.16671350787286174,0.032476179581777,0.9729921164359604,0.007111583732855501
0.08600000000000001,0.016395985642521857,0.0,0.16144779825085037,0.031299184281698395,0.9733496164028493,0.0068796749368641675
0.08700000000000001,0.016400196168837644,0.0,0.15675291236618952,0.03016495432485657,0.9737023333496091,0.006673177295286784
0.088,0.016404406695153435,0.0,0.1525631678849589,0.029071660528007272,0.9740507053281289,0.006489275485041215
0.089,0.016408617221469225,0.0,0.14882869462412857,0.028017951936264107,0.9743950553049524,0.00632553025980212
0.09,0.016412827747785012,0.0,0.14550291154227707,0.027002477594740733,0.9747357062466233,0.006179754162803477
0.091,0.016417038274100803,0.0,0.1425421149462514,0.026023886548550798,0.9750729811196851,0.006049987568781872
0.092,0.016421248800416594,0.0,0.13990510114779253,0.025080827842807935,0.9754072028906815,0.005934476703097741
0.093,0.01642545932673238,0.0,0.13755282357054827,0.02417195052262579,0.9757386945261562,0.005831653520402698
0.094,0.01642966985304817,0.0,0.13545637103280997,0.02329604487590626,0.9760676913860613,0.005740131391324078
0.095,0.016433880379363962,0.0,0.13358790311641328,0.0224517958902887,0.9763944317367209,0.0056586601415987495
0.096,0.01643809090567975,0.0,0.13192495489900255,0.02163813548005479,0.976719108748861,0.0055861457818122805
0.097,0.01644230143199554,0.0,0.13044619544271896,0.02085400341674966,0.9770419131003012,0.005521609609551486
0.098,0.01644651195831133,0.0,0.12913106623100584,0.02009833947191844,0.9773630354688612,0.005464176167551034
0.099,0.016450722484627117,0.0,0.1279596692398359,0.019370083417106273,0.9776826665323605,0.005413063037952524
0.1,0.016454933010942908,0.0,0.12691633533786056,0.018668296326148175,0.9780009569042216,0.0053675791235384945
0.101,0.0164591435372587,0.0,0.12598625301727406,0.017991850145483622,0.9783180523837035,0.00532709529768032
0.10200000000000001,0.016463354063574485,0.0,0.12515832326311976,0.01733986499235926,0.9786340617854947,0.0052910648350936685
0.10300000000000001,0.016467564589890276,0.0,0.12442269857266515,0.01671152008254827,0.9789490829405089,0.005259001753378487
0.10400000000000001,0.016471775116206067,0.0,0.12376973963166782,0.01610599463182383,0.9792632136796594,0.005230471248305185
0.105,0.016475985642521854,0.0,0.12318998496352054,0.015522467855959125,0.9795765518338599,0.005205084632665769
0.106,0.016480196168837644,0.0,0.1226741237394925,0.014960118970727312,0.9798891952340242,0.005182494730125821
0.107,0.016484406695153435,0.0,0.12221387433098131,0.014418179192086801,0.9802012316655155,0.005162393556167135
0.108,0.016488617221469225,0.0,0.12180430662999245,0.01389587793354431,0.980512712659808,0.005144505997628167
0.109,0.016492827747785013,0.0,0.12143961691083435,0.013392417375524119,0.9808237002126413,0.005128585759871353
0.11,0.016497038274100803,0.0,0.12111574216547072,0.012907181150268107,0.9811342375245556,0.0051144185598971026
0.111,0.016501248800416594,0.0,0.1208286614698546,0.01243955289001816,0.9814443677960907,0.005101812620799125
0.112,0.01650545932673238,0.0,0.12057438986804077,0.011988916227016155,0.9817541342277867,0.005090596450331615
0.113,0.01650966985304817,0.0,0.1203489728728555,0.011554654793503975,0.9820635800201833,0.005080616819483514
0.114,0.016513880379363962,0.0,0.12014848158257121,0.0111361522217235,0.9823727483738208,0.005071736925495187
0.115,0.01651809090567975,0.0,0.11996951876204687,0.010732834340673337,0.9826816767562901,0.005063835526249717
0.116,0.01652230143199554,0.0,0.11981054364950751,0.010344125607141097,0.9829903819499045,0.005056804352676977
0.117,0.01652651195831133,0.0,0.11966927561909106,0.009969439927180794,0.9832988891615256,0.0050505466575312625
0.11800000000000001,0.016530722484627117,0.0,0.11954410917611206,0.009608318169067834,0.9836072161076767,0.005044978137997283
0.11900000000000001,0.016534933010942908,0.0,0.11943344556294704,0.009260301201077624,0.9839153805048809,0.005040023357256472
0.12,0.0165391435372587,0.0,0.11933569175589429,0.008924929891485573,0.9842234000696616,0.00503561486708275
0.121,0.016543354063574486,0.0,0.11924925956592383,0.008601745108567073,0.9845312925185421,0.005031692409878262
0.122,0.016547564589890276,0.0,0.11917256484319351,0.008290287720597539,0.9848390755680456,0.005028202193881619
0.123,0.016551775116206067,0.0,0.11910431973285404,0.007990159608129623,0.9851467636319592,0.005025096848609774
0.124,0.016555985642521854,0.0,0.11904388215956739,0.007700916562174233,0.9854543638693058,0.005022333599798284
0.125,0.016560196168837645,0.0,0.11899024101070715,0.0074220685093583,0.9857618876180536,0.005019873933703112
0.126,0.016564406695153435,0.0,0.11894282681826195,0.007153287230449697,0.9860693412510833,0.005017684908492476
0.127,0.016568617221469222,0.0,0.11890107108253606,0.006894244506216297,0.9863767311412754,0.005015737022699662
0.128,0.016572827747785013,0.0,0.11886440613127636,0.006644612117425975,0.9866840636615108,0.005014003877821914
0.129,0.016577038274100803,0.0,0.11883226499213433,0.0064040618448466015,0.9869913451846702,0.005012461871121501
0.13,0.016581248800416594,0.0,0.11880408127867638,0.006172265469246051,0.9872985820836343,0.005011089916274292
0.131,0.01658545932673238,0.0,0.11877928908970695,0.005948894771392196,0.9876057807312838,0.005009869189659751
0.132,0.01658966985304817,0.0,0.1187573229221845,0.005733621532052912,0.9879129475004993,0.005008782900228484
0.133,0.016593880379363962,0.0,0.11873783268236467,0.005526176188802948,0.9882200863355226,0.005007816346452605
0.134,0.01659809090567975,0.0,0.11872077099464241,0.0053262364875870044,0.9885271977644564,0.005006956160541422
0.135,0.01660230143199554,0.0,0.11870580112264847,0.005133482798644133,0.9888342855841681,0.005006190451657268
0.136,0.01660651195831133,0.0,0.11869274091259324,0.004947688325400827,0.9891413518473742,0.00500550896965973
0.137,0.016610722484627118,0.0,0.1186814082997444,0.004768626271283579,0.9894483986067916,0.005004902534881417
0.138,0.016614933010942908,0.0,0.11867162129462024,0.004596069839718881,0.9897554279151372,0.005004362933122593
0.139,0.0166191435372587,0.0,0.11866319797035065,0.004429792234133227,0.9900624418251276,0.005003882820052114
0.14,0.016623354063574486,0.0,0.11865595645156421,0.004269566657953108,0.9903694423894797,0.005003455634279792
0.14100000000000001,0.016627564589890276,0.0,0.11864971490473412,0.004115166314605017,0.9906764316609104,0.005003075518411944
0.14200000000000002,0.016631775116206067,0.0,0.11864429152971419,0.0039663644075154485,0.9909834116921362,0.00500273724744655
0.14300000000000002,0.016635985642521854,0.0,0.11863956143663347,0.0038229669493763554,0.9912903838933033,0.005002436230813394
0.14400000000000002,0.016640196168837645,0.0,0.1186355419776807,0.003684767110900544,0.9915973480679269,0.005002168342080296
0.145,0.016644406695153435,0.0,0.11863212076549239,0.0035515320246901697,0.9919043054851877,0.005001929856181451
0.146,0.016648617221469222,0.0,0.11862924118811655,0.0034231054520689422,0.9922112567843205,0.005001717585622522
0.147,0.016652827747785013,0.0,0.11862684664038495,0.0032993311543605837,0.9925182026045603,0.005001528675495328
0.148,0.016657038274100804,0.0,0.1186248805225881,0.0031800528928888107,0.9928251435851415,0.00500136057088522
0.149,0.01666124880041659,0.0,0.11862328623939722,0.0030651144289773405,0.9931320803652993,0.005001210987195124
0.15,0.01666545932673238,0.0,0.11862200719903307,0.0029543595239498906,0.9934390135842684,0.005001077883158538
0.151,0.016669669853048172,0.0,0.11862098681228996,0.0028476319391301788,0.9937459438812837,0.005000959436328266
0.152,0.01667388037936396,0.0,0.11862016849189605,0.002744775435841922,0.9940528718955799,0.00500085402084152
0.153,0.01667809090567975,0.0,0.11861951198609458,0.0026456680925206937,0.9943597980818643,0.005000760218832583
0.154,0.01668230143199554,0.0,0.11861902694572656,0.0025501868205759877,0.994666722331094,0.005000676759998806
0.155,0.01668651195831133,0.0,0.11861866520240381,0.002458106955349913,0.9949736451874245,0.005000602428598698
0.156,0.016690722484627118,0.0,0.1186184119654017,0.0023693273480870866,0.9952805668179431,0.005000536243590414
0.157,0.01669493301094291,0.0,0.11861825244430034,0.0022837468500321247,0.9955874873897366,0.005000477324987163
0.158,0.0166991435372587,0.0,0.11861817184876504,0.0022012643124296443,0.9958944070698923,0.005000424884120791
0.159,0.016703354063574486,0.0,0.11861815538858185,0.002121778586524262,0.9962013260254973,0.005000378214757465
0.16,0.016707564589890277,0.0,0.11861818827366906,0.0020451885235605945,0.9965082444236385,0.005000336685000755
0.161,0.016711775116206067,0.0,0.1186182557138851,0.001971392974783258,0.9968151624314032,0.005000299729921386
0.162,0.016715985642521854,0.0,0.11861834291911424,0.0019002907914368703,0.9971220802158784,0.005000266844856731
0.163,0.016720196168837645,0.0,0.11861843509929455,0.0018317808247660472,0.9974289979441513,0.005000237579326756
0.164,0.016724406695153436,0.0,0.11861851746428696,0.0017657619260154057,0.9977359157833088,0.00500021153151659
0.165,0.016728617221469223,0.0,0.11861857522387685,0.0017021329464295618,0.9980428339004381,0.005000188343279226
0.166,0.016732827747785013,0.0,0.11861859939001601,0.0016408125744072194,0.9983497523970796,0.005000167702103603
0.167,0.016737038274100804,0.0,0.11861860524225783,0.0015817348259434456,0.9986566711006167,0.005000149333191753
0.168,0.01674124880041659,0.0,0.11861857895023027,0.0015247613298790413,0.9989635901672936,0.005000132969903441
0.169,0.01674545932673238,0.0,0.11861851673866691,0.001469829555672191,0.9992705096397607,0.005000118396941861
0.17,0.016749669853048172,0.0,0.11861841483228691,0.0014168769727810793,0.9995774295606683,0.005000105421163747
0.171,0.01675388037936396,0.0,0.1186182694557899,0.001365841050663891,0.9998843499726671,0.005000093869446841
0.17200000000000001,0.01675809090567975,0.0,0.11861807683399685,0.0013166592587788113,1.0001912709184073,0.00500008358674385
0.17300000000000001,0.01676230143199554,0.0,0.11861783319170063,0.001269269066584024,1.0004981924405396,0.005000074434308744
0.17400000000000002,0.01676651195831133,0.0,0.11861753475377454,0.0012236079435377144,1.0008051145817143,0.0050000662880821025
0.17500000000000002,0.016770722484627118,0.0,0.11861717774510243,0.0011796133590980667,1.0011120373845817,0.005000059037223081
0.176,0.01677493301094291,0.0,0.11861675839071073,0.0011372227827232673,1.0014189608917923,0.005000052582776311
0.177,0.0167791435372587,0.0,0.11861627291561035,0.001096373683871498,1.001725885145997,0.005000046836462857
