Time [s],Lmtc [m],STIM [ ],Fsee [N],Gamma [ ],Lcerel [ ],q [ ]
0.0,0.0186391435372587,0.0,10.160433691801376,0.24181644192196144,1.1151826939670852,0.7116046509391717
0.001,0.0183991435372587,0.0,1.83063422292898,0.23304996785795928,1.1119641983969117,0.6837753390923551
0.002,0.0181591435372587,0.0,0.0578482775949506,0.2246013143970179,1.103126960668249,0.6489922371016408
0.003,0.0179191435372587,0.0,0.0,0.2164589606786771,1.092643847146019,0.6108569285537709
0.004,0.0176791435372587,0.0,0.0,0.20861179734181529,1.0821456519799626,0.5713201613131035
0.005,0.0174391435372587,0.0,0.0,0.20104912678707745,1.0716478000342597,0.5308772584972854
0.006,0.0171991435372587,0.0,0.0,0.19376063588321743,1.0611508107776542,0.49005554182557437
0.007,0.0169591435372587,0.0,0.0,0.18673638220169778,1.0506559214667712,0.4494031364495035
0.008,0.016719143537258698,0.0,0.0,0.17996678594629512,1.0401660846070573,0.4094609059834762
0.009000000000000001,0.0164791435372587,0.0,0.0,0.17344261805157296,1.0296882120360986,0.3707362754498786
0.01,0.0162391435372587,0.0,0.0,0.16715497029406737,1.0192361431935584,0.33368080144647216
0.011,0.0159991435372587,0.0,0.0,0.1610952821065432,1.0088401923175083,0.29867888201535553
0.012,0.0157591435372587,0.0,0.0,0.15525528086552134,0.9985542761156533,0.266037667703648
0.013000000000000001,0.01564545932673238,0.0,0.0,0.14962700361351947,0.988471672487848,0.2359885657807051
0.014,0.01565809090567975,0.0,0.0,0.14420277509086554,0.9787329977330077,0.20868418148972223
0.015,0.015670722484627118,0.0,0.0,0.13897519556340646,0.9695110681945128,0.18418475795807626
0.016,0.015683354063574486,0.0,0.0,0.13393713796628864,0.960977710365997,0.16244743394395744
0.017,0.015695985642521854,0.0,0.0,0.12908173057276004,0.9532618036506757,0.14332809484281372
0.018000000000000002,0.015708617221469223,0.0,0.0,0.12440235136064573,0.9464195878297617,0.1266032255960462
0.019,0.01572124880041659,0.0,0.0,0.1198926189871053,0.9404327704581725,0.112006765682284
0.02,0.01573388037936396,0.0,0.0,0.11554638334865344,0.9352295693261342,0.09926693505296239
0.021,0.015746511958311327,0.0,0.0,0.1113577161006375,0.9307113517531571,0.08813101306373977
0.022,0.015759143537258696,0.0,0.14903513512167857,0.10732090526739622,0.9270507537227508,0.07845936079060906
0.023,0.015771775116206064,0.0,0.5165178273911298,0.10343044535775996,0.9253829826966652,0.07036501648300059
0.024,0.015784406695153436,0.0,0.8132023189899477,0.09968103056669397,0.9248790141352234,0.0633864223541373
0.025,0.015797038274100804,0.0,1.0407467551491987,0.0960675474056865,0.924878469206855,0.057220348109175964
0.026000000000000002,0.015809669853048172,0.0,1.1451599115752316,0.09258506782287307,0.9254105158931922,0.05177711030614497
0.027,0.01582230143199554,0.0,1.069407030112978,0.0892288423848169,0.9266114154791679,0.046993971008754104
0.028,0.01583493301094291,0.0,0.9791063527356132,0.08599429387241911,0.9278794192456102,0.04269118563300021
0.029,0.015847564589890277,0.0,0.8964359856922927,0.08287701044942346,0.9291324170589972,0.03881149449376337
0.03,0.015860196168837645,0.0,0.8214326521293466,0.07987277735902844,0.9303681302153249,0.03531633476797731
0.031,0.015872827747785014,0.0,0.753513044097417,0.07697739021669418,0.9315867555299305,0.03217021994319038
0.032,0.015885459326732382,0.0,0.6920894503715664,0.07418698082199342,0.932788682989875,0.029340638952919253
0.033,0.01589809090567975,0.0,0.636614142209688,0.0714977824899806,0.9339743150905746,0.02679763307375769
0.034,0.01591072248462712,0.0,0.5865739797855224,0.06890616870148081,0.9351440860504125,0.024513728812487562
0.035,0.015923354063574487,0.0,0.5414765047400769,0.06640834968046251,0.9362985305039934,0.022463558528263573
0.036000000000000004,0.015935985642521855,0.0,0.5008667574308564,0.06400103427033112,0.9374381986567375,0.020624305990274313
0.037,0.015948617221469223,0.0,0.46432728445254673,0.06168106522506965,0.9385636440635211,0.018975190716445024
0.038,0.01596124880041659,0.0,0.43147617460943616,0.05944528529866108,0.9396754202792206,0.017497236498530404
0.039,0.01597388037936396,0.0,0.4019637750803649,0.057290583190397454,0.9407740853641973,0.016173190783947203
0.04,0.015986511958311328,0.0,0.37546084493324017,0.0552139393731179,0.9418602623412176,0.01498743140279364
0.041,0.015999143537258696,0.0,0.35167159881983956,0.05321250168016805,0.9429345488989503,0.013925872150004518
0.042,0.016011775116206065,0.0,0.33032920242919367,0.051283661205212654,0.9439975268953937,0.012975862671463044
0.043000000000000003,0.016024406695153433,0.0,0.3111908707981128,0.049424809041916484,0.945049778188546,0.012125934957654023
0.044,0.0160370382741008,0.0,0.29403618048148095,0.047633379027098945,0.9460918815548116,0.011365731071839271
0.045,0.01604966985304817,0.0,0.27866315743728154,0.04590685282828463,0.9471244263229052,0.010685911889420259
0.046,0.016062301431995538,0.0,0.2648909959557798,0.04424283883563499,0.9481479789267224,0.010078095987052163
0.047,0.01607493301094291,0.0,0.2525585427399812,0.04263917927398129,0.9491630779185529,0.009534802271035755
0.048,0.016087564589890278,0.0,0.2415187479117959,0.04109371636815476,0.9501702618506859,0.009049278171938145
0.049,0.016100196168837646,0.0,0.23163727267245732,0.039604295186599504,0.951170068762763,0.008615438550459953
0.05,0.016112827747785014,0.0,0.22279556160652378,0.03816891914235714,0.9521629995953507,0.008227848681528292
0.051000000000000004,0.016125459326732382,0.0,0.21488371297783568,0.036785444246537416,0.953149564045733,0.007881578714013194
0.052000000000000005,0.01613809090567975,0.0,0.2078087685713494,0.03545211536177437,0.9541302011949213,0.007572292140548579
0.053,0.01615072248462712,0.0,0.20148490302289326,0.03416717735070206,0.9551053501239272,0.00729608351271655
0.054,0.016163354063574487,0.0,0.1958325960931887,0.032928875075954496,0.9560754499137617,0.00704943988703036
0.055,0.016175985642521856,0.0,0.19077924011560773,0.0317355006811118,0.957040927428066,0.006829213663336843
0.056,0.016188617221469224,0.0,0.1862631732429271,0.030585413734429075,0.9580021539001325,0.0066325894747955305
0.057,0.016201248800416592,0.0,0.1822257343829148,0.0294768602769574,0.9589595086151957,0.006457021943096365
0.058,0.01621388037936396,0.0,0.17862064092275676,0.028408461830958336,0.9599132883920901,0.006300286227290142
0.059000000000000004,0.01622651195831133,0.0,0.17540424448690584,0.02737883991869345,0.9608637900496501,0.006160381679037031
0.06,0.016239143537258697,0.0,0.17253519502782572,0.02638661606242432,0.96181131040671,0.006035511125236828
0.061,0.016251775116206065,0.0,0.1699741340144089,0.0254304117844125,0.9627561462821043,0.005924061794297316
0.062,0.016264406695153433,0.0,0.16768428555492293,0.024508868893546313,0.9636985862392412,0.005824589948185209
0.063,0.0162770382741008,0.0,0.16564077694851037,0.02362072823536315,0.9646388188471497,0.005735811580471212
0.064,0.01628966985304817,0.0,0.16381714582634657,0.02276469864467097,0.9655770575373123,0.005656572633306332
0.065,0.016302301431995538,0.0,0.16219200165705167,0.021939697094838173,0.9665134755951121,0.005585857584969263
0.066,0.016314933010942907,0.0,0.16074466271062374,0.021144640559233166,0.9674482463059328,0.0055227546885239925
0.067,0.016327564589890275,0.0,0.15945505681887298,0.020378446011224356,0.968381542955158,0.005466446118914524
0.068,0.016340196168837643,0.0,0.1583036320534631,0.019640030424180145,0.9693135388281708,0.005416198951437458
0.069,0.016352827747785015,0.0,0.1572774525977749,0.018928462778942463,0.9702443466240661,0.005371366357900948
0.07,0.016365459326732383,0.0,0.15636161556159972,0.01824256328990271,0.971174101337129,0.005331353428318669
0.07100000000000001,0.01637809090567975,0.0,0.15554598554383645,0.017581484189389044,0.972102893693636,0.005295647331693843
0.07200000000000001,0.01639072248462712,0.0,0.15482078597747553,0.016944386034820545,0.9730308127910958,0.005263788058056785
0.073,0.016403354063574488,0.0,0.15417640556660175,0.016330429383616285,0.9739579477270173,0.005235362890602368
0.074,0.016415985642521856,0.0,0.15360337390018705,0.015738774793195315,0.9748843875989092,0.005210001862430137
0.075,0.016428617221469224,0.0,0.1530923396876795,0.015168582820976714,0.9758102215042802,0.0051873736066767396
0.076,0.016441248800416593,0.0,0.15263621391146903,0.014619089823431526,0.9767355170061496,0.005167184329567856
0.077,0.01645388037936396,0.0,0.1522303014815217,0.014089462931697503,0.9776603185103534,0.005149168428591794
0.078,0.01646651195831133,0.0,0.15186919500113377,0.013578976151873071,0.9785846780279746,0.005133091927812872
0.079,0.016479143537258698,0.0,0.15154862921315548,0.013086991106594208,0.9795086366116845,0.005118747813075937
0.08,0.016491775116206066,0.0,0.15126437329813902,0.012612869418496894,0.9804322353141548,0.005105950340694475
0.081,0.016504406695153434,0.0,0.15101222571643594,0.012155972710217108,0.9813555151880572,0.0050945329922093
0.082,0.016517038274100802,0.0,0.15078800960706604,0.011715662604390827,0.9822785172860631,0.0050843466072164195
0.083,0.01652966985304817,0.0,0.1505878152331611,0.011291328023084482,0.9832012801893957,0.005075258262571489
0.084,0.01654230143199554,0.0,0.15041007829394643,0.01088243443593113,0.9841238191147295,0.005067150473303273
0.085,0.016554933010942907,0.0,0.15025169486099696,0.010488246853051322,0.9850461648213272,0.005059914204475547
0.08600000000000001,0.016567564589890275,0.0,0.15011098168904558,0.010108297065230469,0.9859683339075123,0.005053456959709342
0.08700000000000001,0.016580196168837644,0.0,0.1499862619243157,0.009742116863253976,0.986890342971608,0.005047695661825019
0.088,0.016592827747785012,0.0,0.14987586418191973,0.009389238037907257,0.9878122086119377,0.005042555757336473
0.089,0.01660545932673238,0.0,0.14977812171396035,0.00904919237997571,0.9887339474268249,0.005037970397853614
0.09,0.01661809090567975,0.0,0.1496913716689009,0.00872151168024475,0.9896555760145928,0.005033879692774278
0.091,0.016630722484627117,0.0,0.14961395444172665,0.008405727729499785,0.9905771109735647,0.005030230027959372
0.092,0.016643354063574485,0.0,0.14954424565544588,0.008101377181104211,0.9914985685746611,0.005026973497162914
0.093,0.016655985642521853,0.0,0.14948232358470434,0.007808118976777053,0.992419947976065,0.0050240684753616255
0.094,0.016668617221469225,0.0,0.14942689780712948,0.007525400093652172,0.9933412621178159,0.005021475612964116
0.095,0.016681248800416593,0.0,0.14937736435322352,0.007252886793605869,0.9942625170438183,0.0050191618018190914
0.096,0.01669388037936396,0.0,0.14933312002398388,0.006990245338514443,0.9951837187979766,0.005017097302627337
0.097,0.01670651195831133,0.0,0.14929356227860596,0.006737141990254197,0.9961048734241954,0.005015255424838142
0.098,0.016719143537258698,0.0,0.1492580891344142,0.006493243010701428,0.997025986966379,0.005013612234046918
0.099,0.016731775116206066,0.0,0.14922609907881965,0.006258214661732439,0.997947065468432,0.005012146284876477
0.1,0.016744406695153435,0.0,0.14919699099334213,0.006031723205223528,0.9988681149742589,0.005010838377438984
0.101,0.016757038274100803,0.0,0.14917016408972253,0.005813434903050998,0.999789141527764,0.005009671335586518
0.10200000000000001,0.01676966985304817,0.0,0.14914553039275427,0.005603096709585198,1.0007101460090988,0.005008630202826718
0.10300000000000001,0.01678230143199554,0.0,0.14912279304707587,0.0054003314464127735,1.0016311314038164,0.005007700977264168
0.10400000000000001,0.016794933010942908,0.0,0.1491016698291314,0.005204879122922991,1.0025521005513494,0.005006871696937863
0.105,0.016807564589890276,0.0,0.14908194827937518,0.005016502278585736,1.0034730555892142,0.005006131722825067
0.106,0.016820196168837644,0.0,0.14906341601624903,0.004834963452870882,1.0043939986549277,0.005005471504824918
0.107,0.016832827747785013,0.0,0.1490458607270005,0.004660025185248313,1.0053149318860066,0.0050048824774476
0.108,0.01684545932673238,0.0,0.14902907015989794,0.00449145001518791,1.0062358574199677,0.00500435696456872
0.109,0.01685809090567975,0.0,0.14901283211820496,0.004329000482159553,1.0071567773943273,0.005003888092573011
0.11,0.016870722484627117,0.0,0.1489969344552878,0.004172439125633124,1.0080776939466025,0.0050034697112509696
0.111,0.016883354063574486,0.0,0.14898130388876574,0.004021609568747907,1.0089986078149669,0.005003096521632746
0.112,0.016895985642521854,0.0,0.14896586715474355,0.0038762210868899423,1.0099195197375712,0.0050027634451060956
0.113,0.016908617221469222,0.0,0.14895049226181548,0.0037360414861870184,1.0108404310447863,0.005002466096110223
0.114,0.01692124880041659,0.0,0.14893511436637555,0.0036009105266779145,1.0117613423902725,0.005002200701337326
0.115,0.016933880379363962,0.0,0.14891966863831885,0.0034706679684014118,1.0126822544276897,0.005001963869003564
0.116,0.01694651195831133,0.0,0.14890409026086968,0.00334515357139629,1.013603167810698,0.005001752552892865
0.117,0.0169591435372587,0.0,0.14888831443107728,0.00322420709570133,1.0145240831929576,0.0050015640194574565
0.11800000000000001,0.016971775116206067,0.0,0.14887227635996375,0.003107668301355311,1.0154450012281286,0.0050013958177535355
0.11900000000000001,0.016984406695153435,0.0,0.14885591127318923,0.0029953769483970147,1.0163659225698711,0.005001245752002901
0.12,0.016997038274100804,0.0,0.14883915441156972,0.0028871727968652217,1.0172868478718453,0.005001111856583459
0.121,0.017009669853048172,0.0,0.14882194103191174,0.002782895606798709,1.0182077777877112,0.005000992373263144
0.122,0.01702230143199554,0.0,0.14880420640798805,0.0026823851382362595,1.0191287129711288,0.005000885730502982
0.123,0.01703493301094291,0.0,0.14878599742726076,0.0025855625057894203,1.0200496529500818,0.0050007906042729795
0.124,0.017047564589890277,0.0,0.1487672672657508,0.0024922054958772975,1.0209705981977977,0.00500070566796165
0.125,0.017060196168837645,0.0,0.14874798934837616,0.002402198639453676,1.021891548983371,0.005000629839186739
0.126,0.017072827747785013,0.0,0.14872814579732394,0.002315437935576035,1.0228125054882489,0.0050005621552560225
0.127,0.01708545932673238,0.0,0.14870771874270344,0.002231819383301853,1.0237334678938783,0.005000501750987317
0.128,0.01709809090567975,0.0,0.1486866903229823,0.0021512389816886078,1.024654436381706,0.005000447849494293
0.129,0.017110722484627118,0.0,0.14866504268532033,0.002073592729793779,1.0255754111331792,0.005000399753758646
0.13,0.017123354063574486,0.0,0.14864275798588944,0.0019987766266748455,1.0264963923297448,0.005000356838931278
0.131,0.017135985642521855,0.0,0.14861981839030447,0.0019266866713892852,1.0274173801528497,0.005000318545308465
0.132,0.017148617221469223,0.0,0.14859620607401489,0.0018572188629945772,1.028338374783941,0.005000284371932059
0.133,0.01716124880041659,0.0,0.14857190322266975,0.0017902692005481997,1.0292593764044657,0.005000253870765863
0.134,0.01717388037936396,0.0,0.14854689707457866,0.001725754802824587,1.030180385144971,0.005000226650280038
0.135,0.017186511958311328,0.0,0.1485212034475069,0.001663623779064984,1.031101400847557,0.005000202371212932
0.136,0.017199143537258696,0.0,0.14849480355732908,0.001603694723939064,1.0320224237036935,0.005000180680376148
0.137,0.017211775116206064,0.0,0.14846769325636378,0.001545903956808247,1.0329434537571711,0.0050001613075797945
0.138,0.017224406695153432,0.0,0.14843986840349987,0.0014901877970339536,1.0338644910517818,0.005000144009509169
0.139,0.0172370382741008,0.0,0.14841132486451397,0.001436482563977604,1.0347855356313163,0.005000128567245033
0.14,0.017249669853048172,0.0,0.1483820585121127,0.0013847245770006187,1.035706587539566,0.005000114783988954
0.14100000000000001,0.01726230143199554,0.0,0.14835206522588823,0.0013348501554644179,1.036627646820322,0.005000102482979359
0.14200000000000002,0.01727493301094291,0.0,0.14832134089261234,0.001286795618730422,1.037548713517376,0.005000091505584689
0.14300000000000002,0.017287564589890277,0.0,0.14828988140634344,0.0012404972861600513,1.038469787674519,0.005000081709560841
0.14400000000000002,0.017300196168837646,0.0,0.14825768266840886,0.0011958914771147263,1.0393908693355423,0.005000072967460772
0.145,0.017312827747785014,0.0,0.14822474058757568,0.001152914510955868,1.040311958544237,0.005000065165184834
0.146,0.017325459326732382,0.0,0.1481910510801847,0.0011115027070448952,1.0412330553443947,0.005000058200661118
0.147,0.01733809090567975,0.0,0.14815661007019726,0.0010715923847432287,1.0421541597798065,0.005000051982645684
0.148,0.01735072248462712,0.0,0.14812141348938038,0.0010331198634122892,1.0430752718942637,0.0050000464296332415
0.149,0.017363354063574487,0.0,0.14808546040165044,0.0009960672862464953,1.0439963916999682,0.005000041474975555
0.15,0.017375985642521855,0.0,0.14804875537447482,0.000960343670286171,1.044917519153534,0.005000037049056672
0.151,0.017388617221469223,0.0,0.14801129757842002,0.0009258907328848787,1.045838654266194,0.005000033094236605
0.152,0.017401248800416592,0.0,0.1479730859786212,0.0008926711563537437,1.0467597970513232,0.005000029561294842
0.153,0.01741388037936396,0.0,0.1479341195467847,0.0008606476230038913,1.0476809475222961,0.005000026405919477
0.154,0.01742651195831133,0.0,0.14789439726110967,0.0008297828151464466,1.0486021056924877,0.005000023588252328
0.155,0.017439143537258697,0.0,0.1478539181063594,0.000800039415092535,1.049523271575273,0.005000021072471911
0.156,0.017451775116206065,0.0,0.1478126810739829,0.0007713801051532818,1.0504444451840262,0.005000018826411602
0.157,0.017464406695153433,0.0,0.14777068516198655,0.0007437675676398122,1.0513656265321227,0.005000016821210453
0.158,0.0174770382741008,0.0,0.1477279293751182,0.0007171644848632516,1.052286815632937,0.0050000150309942775
0.159,0.01748966985304817,0.0,0.1476844127247763,0.0006915335391347251,1.0532080124998442,0.0050000134325847495
0.16,0.017502301431995538,0.0,0.14764013422920694,0.0006668374127653581,1.0541292171462187,0.005000012005234408
0.161,0.017514933010942906,0.0,0.1475950929133629,0.0006430387880662758,1.0550504295854353,0.005000010730385554
0.162,0.017527564589890278,0.0,0.14754928780902568,0.0006201003473486036,1.055971649830869,0.005000009591451189
0.163,0.017540196168837646,0.0,0.14750271675197527,0.0005980037423290078,1.0568928779080804,0.005000008574486678
0.164,0.017552827747785014,0.0,0.14745537849249163,0.0005767405325106674,1.0578141138334416,0.005000007667306621
0.165,0.017565459326732383,0.0,0.14740727778585253,0.0005562192839526963,1.0587353575625416,0.005000006855550405
0.166,0.01757809090567975,0.0,0.14735841437519562,0.0005364200127789169,1.0596566091018038,0.005000006129437189
0.167,0.01759072248462712,0.0,0.14730878801010694,0.0005173227351131521,1.0605778684576521,0.005000005480136843
0.168,0.017603354063574488,0.0,0.14725839844663755,0.0004989074670792241,1.06149913563651,0.005000004899684665
0.169,0.017615985642521856,0.0,0.14720724544735742,0.00048115422480095543,1.0624204106448012,0.005000004380902911
0.17,0.017628617221469224,0.0,0.14715532878135956,0.00046404302440216847,1.063341693488949,0.005000003917328673
0.171,0.017641248800416592,0.0,0.14710264822421448,0.00044755388200668584,1.0642629841753772,0.005000003503147675
0.17200000000000001,0.01765388037936396,0.0,0.14704920355807388,0.00043166681373833,1.0651842827105096,0.005000003133133579
0.17300000000000001,0.01766651195831133,0.0,0.14699499457165,0.0004163618357209234,1.0661055891007694,0.005000002802592417
0.17400000000000002,0.017679143537258697,0.0,0.14694002106021972,0.0004016189640782885,1.0670269033525803,0.005000002507311761
0.17500000000000002,0.017691775116206065,0.0,0.1468842828256415,0.00038741821493424786,1.0679482254723662,0.005000002243514309
0.176,0.017704406695153434,0.0,0.14682777967643393,0.00037373960441262433,1.0688695554665504,0.00500000200781554
0.177,0.017717038274100802,0.0,0.14677051142768072,0.0003605631486372396,1.0697908933415565,0.00500000179718514
0.178,0.01772966985304817,0.0,0.14671247790112193,0.0003478688637319165,1.0707122391038084,0.00500000160891191
