Time [s],Lmtc [m],STIM [ ],Fsee [N],Gamma [ ],Lcerel [ ],q [ ]
0.0,0.019639143537258697,0.0,10.795730045034459,0.21168275293280198,1.187312185064127,0.6886938204842122
0.001,0.019139143537258697,0.0,0.0,0.20400874857207005,1.180899190287965,0.6565726736555981
0.002,0.018639143537258696,0.0,0.0,0.19661295767916903,1.1703049030738635,0.61865878950866
0.003,0.018139143537258696,0.0,0.0,0.18948541955090187,1.1597336390475101,0.579287146654058
0.004,0.0176391435372587,0.0,0.0,0.18261603358570913,1.1491822231650153,0.538925449599092
0.005,0.0171391435372587,0.0,0.0,0.17599572721768675,1.1386489780887854,0.49809587837906516
0.006,0.016639143537258698,0.0,0.0,0.16961558267080795,1.1281324874842689,0.4573444292811434
0.007,0.016139143537258697,0.0,0.0,0.1634667179309934,1.117631496933677,0.4172113140681062
0.008,0.015639143537258697,0.0,0.0,0.15754074231924892,1.1071477144274853,0.3782076956654967
0.009000000000000001,0.015139143537258697,0.0,0.0,0.1518296088068796,1.0966891757664494,0.34079305860076703
0.01,0.014639143537258698,0.0,0.0,0.14632552462518003,1.0862787064318806,0.3053619522388454
0.011,0.014665459326732383,0.0,0.0,0.14102098709245448,1.075965215263704,0.27223749977022027
0.012,0.014691775116206066,0.0,0.0,0.13590876246947767,1.0658320982444474,0.24166503621410168
0.013000000000000001,0.014718090905679751,0.0,0.0,0.13098187524649108,1.0560044671685407,0.21380881370201155
0.014,0.014744406695153435,0.0,0.0,0.12623360760030577,1.046645476048908,0.1887461906554778
0.015,0.01477072248462712,0.0,0.0,0.12165748521967634,1.0379276395035564,0.16645568649601958
0.016,0.014797038274100803,0.0,0.0,0.11724726559220669,1.0299923372220015,0.1468150863703536
0.017,0.014823354063574488,0.0,0.0,0.11299693435106485,1.0229144178216567,0.1296173025071366
0.018000000000000002,0.014849669853048171,0.0,0.0,0.10890069548275946,1.0166932695731539,0.11460425697263817
0.019,0.014875985642521856,0.0,0.0,0.10495296255121186,1.011269377381637,0.10150447467133779
0.02,0.01490230143199554,0.0,0.0,0.10114834848172154,1.0065499682398074,0.0900605813355572
0.021,0.014928617221469225,0.0,0.0,0.09748166957810236,1.0024324663679087,0.0800437856245229
0.022,0.014954933010942908,0.0,0.0,0.09394792229065028,0.9988186397014291,0.07125745515490747
0.023,0.014981248800416593,0.0,0.0,0.09054228782759816,0.9956217319517664,0.06353524938539129
0.024,0.015007564589890277,0.0,0.0,0.08726012315326129,0.9927684984136711,0.05673693839390068
0.025,0.015033880379363962,0.0,0.0,0.08409694632482893,0.9901979137321502,0.05074378007563739
0.026000000000000002,0.015060196168837645,0.0,0.0,0.08104845153683135,0.9878610075001887,0.0454549242384578
0.027,0.01508651195831133,0.0,0.0,0.07811047487410008,0.9857172365124911,0.04078377089076913
0.028,0.015112827747785013,0.0,0.0,0.07527901264199298,0.9837342279547914,0.036655733906351934
0.029,0.015139143537258698,0.0,0.0,0.07255020299216203,0.9818855152213003,0.033006066362278055
0.03,0.015165459326732382,0.0,0.0,0.06992032298775262,0.9801495396418901,0.02977832453609456
0.031,0.015191775116206067,0.0,0.0,0.06738578628768004,0.9785086701135345,0.02692311379322855
0.032,0.01521809090567975,0.0,0.0,0.06494314334026448,0.9769485478989336,0.024397090706409885
0.033,0.015244406695153435,0.0,0.0,0.06258904355620239,0.9754568545054537,0.022162053701127414
0.034,0.015270722484627118,0.0,0.0,0.06032030599735201,0.9740240357756235,0.020184428479583273
0.035,0.015297038274100803,0.0,0.0,0.058133805890054444,0.9726413927993915,0.018434477417434588
0.036000000000000004,0.015323354063574487,0.0,0.0,0.05602657209888781,0.9713020363171295,0.016885993108614564
0.037,0.015349669853048172,0.0,0.0,0.053995752900699294,0.9700002490067668,0.015515813094349351
0.038,0.015375985642521855,0.0,0.0,0.05203854513839758,0.9687307559040168,0.014303394391663522
0.039,0.01540230143199554,0.0,0.0,0.050152289903524355,0.9674893700665562,0.01323060408604233
0.04,0.015428617221469224,0.0,0.0,0.04833444030162722,0.9662725857426127,0.012281401948200727
0.041,0.015454933010942909,0.0,0.0,0.04658248874263381,0.9650771351441203,0.011441555203925011
0.042,0.015481248800416592,0.0,0.0,0.044894017213620706,0.9639002287913594,0.010698470881932848
0.043000000000000003,0.015507564589890277,0.0,0.0,0.04326678822987547,0.9627397973834676,0.01004104780768968
0.044,0.01553388037936396,0.0,0.0,0.0416985742255954,0.9615937963531843,0.009459421525661274
0.045,0.015560196168837645,0.0,0.0,0.04018720276141789,0.9604603840781001,0.008944852532698892
0.046,0.015586511958311329,0.0,0.0,0.03873058331386629,0.95933799592217,0.008489610281048238
0.047,0.015612827747785014,0.0,0.0,0.03732679764051765,0.9582254809100845,0.008086883267045028
0.048,0.015639143537258697,0.0,0.0,0.035973927498948996,0.9571216880665342,0.007730618779395562
0.049,0.015665459326732384,0.0,0.0,0.03467014181557897,0.9560256166264632,0.007415464511072887
0.05,0.015691775116206067,0.0,0.0,0.033413533528910425,0.954936217979751,0.00713665254089557
0.051000000000000004,0.01571809090567975,0.0,0.0,0.03220247189573913,0.9538528517796531,0.0068900121488098915
0.052000000000000005,0.015744406695153434,0.0,0.0,0.031035356760069972,0.952774922564163,0.006671843050726338
0.053,0.015770722484627117,0.0,0.0,0.02991058796590785,0.951701834871274,0.006478859016576367
0.054,0.015797038274100804,0.0,0.0,0.028826615044277016,0.9506330413989766,0.0063081514992605996
0.055,0.015823354063574487,0.0,0.0,0.027781885826707264,0.9495680346478111,0.006157140013358743
0.056,0.01584966985304817,0.0,0.0,0.026774998704276923,0.9485064446934668,0.00602355595065348
0.057,0.015875985642521857,0.0,0.0,0.025804639806267387,0.9474479760075768,0.005905395657918758
0.058,0.01590230143199554,0.0,0.0,0.024869495261960046,0.9463923330617744,0.005800879713321946
0.059000000000000004,0.015928617221469224,0.0,0.0,0.023968251976878723,0.9453392209010498,0.005708429167462937
0.06,0.015954933010942907,0.0,2.4140903267090206e-05,0.023099667178567915,0.9442883895537548,0.00562665016958647
0.061,0.01598124880041659,0.0,0.09631464134821431,0.02226257215836408,0.9438298332679433,0.005555749082545612
0.062,0.016007564589890277,0.0,0.19084898251482119,0.02145582525976103,0.9447635554318717,0.005495886028468117
0.063,0.01603388037936396,0.0,0.19905265082186996,0.020678326243681478,0.946609501369652,0.005444243271467486
0.064,0.016060196168837644,0.0,0.1986380256509397,0.019929014856198905,0.948531361483042,0.005398109960928765
0.065,0.01608651195831133,0.0,0.19779861189093192,0.019206868827400792,0.9504569396585338,0.005356772320864376
0.066,0.016112827747785014,0.0,0.19702095719205875,0.01851090537076686,0.9523819920075741,0.005319725672387053
0.067,0.016139143537258697,0.0,0.19632700491330363,0.017840168297735,0.9543063227186067,0.005286524285317613
0.068,0.01616545932673238,0.0,0.1957091809996894,0.017193753442795542,0.956229994576922,0.00525676988212818
0.069,0.016191775116206068,0.0,0.19516039148987832,0.0165708953255006,0.9581530669400773,0.005230110022117512
0.07,0.01621809090567975,0.0,0.19467116050459654,0.015970480930991758,0.9600756208403607,0.005206212203625858
0.07100000000000001,0.016244406695153434,0.0,0.19423616500204788,0.015391768381318973,0.961997701316009,0.005184793384856085
0.07200000000000001,0.016270722484627118,0.0,0.19385028218157402,0.01483403567063593,0.9639193520467974,0.005165598945496564
0.073,0.016297038274100804,0.0,0.19350842851259065,0.014296560793096307,0.9658406167125005,0.005148399271427039
0.074,0.016323354063574488,0.0,0.19320555384982013,0.01377862174285377,0.9677615389928939,0.0051329874828351055
0.075,0.01634966985304817,0.0,0.1929366361790786,0.013279496514062,0.9696821625677522,0.005119177345401212
0.076,0.016375985642521854,0.0,0.1926966769928457,0.012798463100874678,0.9716025311168507,0.005106801352671418
0.077,0.01640230143199554,0.0,0.19248317122965428,0.01233491855930338,0.9735226663797969,0.0050957119153712
0.078,0.016428617221469224,0.0,0.19229327676533267,0.01188809460181323,0.9754425931861095,0.005085772162965835
0.079,0.016454933010942908,0.0,0.19212433343247876,0.011457409240544442,0.9773623348406003,0.005076863503559567
0.08,0.01648124880041659,0.0,0.19197418516373851,0.011042329418958368,0.9792819102453875,0.005068880071664301
0.081,0.016507564589890278,0.0,0.1918406821785991,0.010642322080516364,0.9812013383025893,0.005061726396569988
0.082,0.01653388037936396,0.0,0.1917216800044958,0.010256854168679781,0.9831206379143239,0.005055316457084698
0.083,0.016560196168837645,0.0,0.19161503861606538,0.009885392626909975,0.9850398279827094,0.0050495728127761446
0.084,0.01658651195831133,0.0,0.19151862169216127,0.009527404398668301,0.9869589274098641,0.0050444258066593365
0.085,0.016612827747785015,0.0,0.19143099426084564,0.009182416901093495,0.9888779488882937,0.005039813672534399
0.08600000000000001,0.016639143537258698,0.0,0.19135146749860177,0.00884990186864899,0.9907968984913409,0.005035680073752318
0.08700000000000001,0.01666545932673238,0.0,0.19127873895223393,0.008529385214078597,0.9927157877612993,0.005031975105463769
0.088,0.016691775116206065,0.0,0.19121192298234588,0.00822047391824598,0.9946346245441124,0.005028654807092067
0.089,0.01671809090567975,0.0,0.19115013486801238,0.007922774962014786,0.9965534166857233,0.005025679528098221
0.09,0.016744406695153435,0.0,0.19109249068074938,0.007635895326248681,0.998472172032075,0.005023013536607784
0.091,0.016770722484627118,0.0,0.19103810717915595,0.007359441991811322,1.0003908984291108,0.005020624659689253
0.092,0.016797038274100805,0.0,0.19098610172371763,0.007093021939566366,1.0023096037227737,0.005018483953184053
0.093,0.016823354063574488,0.0,0.19093574237464453,0.0068362852899932275,1.004228294421901,0.0050165657335358126
0.094,0.01684966985304817,0.0,0.19088683138510387,0.006588886203547423,1.0061469722817549,0.005014846901379486
0.095,0.016875985642521855,0.0,0.19083868504282453,0.006350365528521182,1.0080656433869712,0.0050133059083270716
0.096,0.01690230143199554,0.0,0.19079097942878084,0.006120445886490039,1.0099843106203823,0.005011924647231986
0.097,0.016928617221469225,0.0,0.19074339078820562,0.005898849899029527,1.0119029768648202,0.005010686766267922
0.098,0.016954933010942908,0.0,0.19069559552838997,0.005685300187715179,1.0138216450031172,0.005009577511937363
0.099,0.01698124880041659,0.0,0.19064727021905725,0.00547951937412253,1.0157403179181057,0.005008583584512299
0.1,0.01700756458989028,0.0,0.19059809159560956,0.005281230079827113,1.0176589984926179,0.005007693005103988
0.101,0.01703388037936396,0.0,0.1905477365649063,0.005090154926404461,1.0195776896094857,0.005006894993594192
0.10200000000000001,0.017060196168837645,0.0,0.1904958822140288,0.004906016535430109,1.0214963941515418,0.005006179856695645
0.10300000000000001,0.01708651195831133,0.0,0.19044220582176127,0.00472853752847959,1.023415115001618,0.00500553888544443
0.10400000000000001,0.017112827747785015,0.0,0.19038684517969157,0.00455755242523941,1.0253338509378944,0.0050049646514652105
0.105,0.0171391435372587,0.0,0.1903295091502433,0.004392696224601826,1.027252604563473,0.005004449775295725
0.106,0.01716545932673238,0.0,0.1902700763007256,0.004233773766327789,1.029171376969519,0.005003988207447671
0.107,0.017191775116206065,0.0,0.19020844014946456,0.004080596369115281,1.0310901691147962,0.005003574504618907
0.108,0.017218090905679752,0.0,0.19014449432192965,0.003932975351662276,1.0330089819580672,0.00500320375361437
0.109,0.017244406695153435,0.0,0.19007813255688083,0.0037907220326667502,1.0349278164580953,0.005002871523627953
0.11,0.01727072248462712,0.0,0.19000924871331537,0.0036536477308266807,1.0368466735736432,0.005002573822338829
0.111,0.017297038274100802,0.0,0.18993773677739256,0.003521563764840043,1.038765554263474,0.0050023070555723515
0.112,0.01732335406357449,0.0,0.18986349086967574,0.0033942814534048136,1.040684459486351,0.005002067990287096
0.113,0.017349669853048172,0.0,0.18978640525280596,0.003271612115218968,1.0426033902010365,0.005001853720660815
0.114,0.017375985642521855,0.0,0.189706431469883,0.0031534024362351843,1.0445223468559381,0.0050016616967000025
0.115,0.01740230143199554,0.0,0.189623590448082,0.0030394733883240786,1.0464413292804735,0.005001489579212075
0.116,0.017428617221469225,0.0,0.1895377969637059,0.0029296341115719387,1.048360338253189,0.005001335251220757
0.117,0.01745493301094291,0.0,0.18944901682047058,0.002823756736843742,1.0502793740978003,0.005001196902443458
0.11800000000000001,0.017481248800416592,0.0,0.18935721592707536,0.002721713395004465,1.0521984371380235,0.00500107289804857
0.11900000000000001,0.01750756458989028,0.0,0.18926236030005084,0.002623376216919085,1.0541175276975745,0.00500096176296005
0.12,0.017533880379363962,0.0,0.18916441606655665,0.0025286173334525793,1.0560366461001691,0.005000862167406136
0.121,0.017560196168837645,0.0,0.18906334946751055,0.0024373088754699223,1.0579557926695236,0.005000772913631617
0.122,0.01758651195831133,0.0,0.18895912686052618,0.002349322973836093,1.0598749677293533,0.005000692923696632
0.123,0.017612827747785012,0.0,0.18885171472291343,0.0022645317594160675,1.0617941716033743,0.005000621228288611
0.124,0.0176391435372587,0.0,0.18874107965471354,0.002182807363074823,1.063713404615303,0.005000556956477456
0.125,0.017665459326732382,0.0,0.18862723908636905,0.002104116078195465,1.0656326666346085,0.005000499397867953
0.126,0.017691775116206065,0.0,0.18851016139883772,0.0020282299355378923,1.0675519579709085,0.005000447765291911
0.127,0.017718090905679752,0.0,0.18838983207364873,0.0019550522581444204,1.069471278781668,0.005000401452368583
0.128,0.017744406695153436,0.0,0.18826624156059402,0.0018845020085040485,1.0713906291807698,0.005000359921874757
0.129,0.01777072248462712,0.0,0.18813938041270076,0.0018164981491057743,1.0733100092820969,0.005000322688064051
0.13,0.017797038274100802,0.0,0.18800923928737467,0.0017509596424385959,1.0752294191995315,0.00500028931213208
0.131,0.017823354063574486,0.0,0.1878758089473502,0.0016878054509915116,1.077148859046957,0.005000259398033466
0.132,0.017849669853048172,0.0,0.1877390802620112,0.0016269545372535196,1.0790683289382554,0.005000232588628559
0.133,0.017875985642521856,0.0,0.18759904420826554,0.001568325863713618,1.0809878289873103,0.005000208562138664
0.134,0.01790230143199554,0.0,0.18745569187202923,0.0015118383928608052,1.0829073593080036,0.005000187028889528
0.135,0.017928617221469226,0.0,0.18730901444906708,0.001457411087184079,1.0848269200142184,0.005000167728323757
0.136,0.01795493301094291,0.0,0.18715900324618992,0.0014049629091724383,1.0867465112198373,0.005000150426263744
0.137,0.017981248800416592,0.0,0.18700564968246997,0.0013544128213148808,1.0886661330387435,0.005000134912407613
0.138,0.018007564589890276,0.0,0.18685167618050394,0.0013056929655630995,1.0905857610035548,0.005000121001937342
0.139,0.01803388037936396,0.0,0.18669779189522534,0.001258764774131641,1.0925053887360177,0.0050001085365433805
0.14,0.018060196168837646,0.0,0.18652856692126715,0.0012135037928507938,1.0944251552402335,0.005000097350377492
0.14100000000000001,0.01808651195831133,0.0,0.1863496225299625,0.001169861171778261,1.0963450100386507,0.005000087314964339
0.14200000000000002,0.018112827747785012,0.0,0.18616657039051512,0.0011277880609717457,1.0982649026537186,0.005000078314056634
0.14300000000000002,0.0181391435372587,0.0,0.1859850115189956,0.0010872356104889506,1.1001847826078857,0.005000070242566084
0.14400000000000002,0.018165459326732383,0.0,0.18581053606839704,0.0010481549703875788,1.1021045994236007,0.005000063005576598
0.145,0.018191775116206066,0.0,0.18564872396063328,0.0010104972907253344,1.1040243026233125,0.005000056517434616
0.146,0.01821809090567975,0.0,0.18550514635982138,0.0009742137215599181,1.1059438417294705,0.005000050700911633
0.147,0.018244406695153433,0.0,0.1853853679873797,0.0009392554129490341,1.1078631662645226,0.005000045486434212
0.148,0.01827072248462712,0.0,0.18529495027824242,0.0009055735149503852,1.1097822257509184,0.0050000408113770045
0.149,0.018297038274100803,0.0,0.18523945537897404,0.0008731191776216745,1.1117009697111064,0.0050000366194144835
0.15,0.018323354063574486,0.0,0.18522445098730791,0.0008418435510206049,1.1136193476675356,0.005000032859927354
0.151,0.018349669853048173,0.0,0.18525551603322096,0.0008116977852048794,1.1155373091426544,0.005000029487459749
0.152,0.018375985642521856,0.0,0.18532810615154624,0.000782665289605827,1.1174548953132952,0.0050000264647250695
0.153,0.01840230143199554,0.0,0.18542991827734212,0.0007546918089957784,1.119372217563645,0.005000023753895053
0.154,0.018428617221469223,0.0,0.18556748662475048,0.0007277055212916357,1.1212892170918412,0.00500002131952719
0.155,0.018454933010942906,0.0,0.185740824612833,0.0007016785372605759,1.123205894135505,0.005000019134118237
0.156,0.018481248800416593,0.0,0.1859499559208704,0.0006765829676697767,1.1251222489322568,0.005000017172749254
0.157,0.018507564589890276,0.0,0.186194914462881,0.0006523909232864153,1.1270382817197173,0.005000015412863507
0.158,0.01853388037936396,0.0,0.18647574436246586,0.000629074514877669,1.128953992735508,0.005000013834061041
0.159,0.018560196168837646,0.0,0.18679249992767316,0.0006066058532107155,1.1308693822172486,0.005000012417908928
0.16,0.01858651195831133,0.0,0.18714524562539006,0.0005849570490527318,1.132784450402561,0.005000011147766218
0.161,0.018612827747785013,0.0,0.18753405605649656,0.0005641002131708954,1.1346991975290655,0.005000010008622685
0.162,0.0186391435372587,0.0,0.18795901593054773,0.0005440074563323838,1.1366136238343827,0.005000008986950458
0.163,0.018665459326732383,0.0,0.1884202200403606,0.0005246508893043742,1.1385277295561336,0.005000008070567716
0.164,0.018691775116206066,0.0,0.1889177732371692,0.000506002622854044,1.1404415149319391,0.0050000072485136245
0.165,0.01871809090567975,0.0,0.1894517904052773,0.0004880347677485707,1.14235498019942,0.00500000651093375
0.166,0.018744406695153433,0.0,0.19002239643705388,0.0004707194347551315,1.1442681255961968,0.005000005848975221
0.167,0.01877072248462712,0.0,0.1906297262077073,0.0004540287346409039,1.1461809513598906,0.005000005254690945
0.168,0.018797038274100803,0.0,0.191273701458514,0.0004379427067070195,1.1480934597128567,0.0050000047212257915
0.169,0.018823354063574486,0.0,0.19195305255371753,0.00042246247224026905,1.1500056635318674,0.005000004243066234
0.17,0.018849669853048173,0.0,0.19266861089293408,0.0004075244043849015,1.1519175570623075,0.005000003813178441
0.171,0.018875985642521857,0.0,0.19342032329318165,0.00039311366685945503,1.1538291425015141,0.00500000342681591
0.17200000000000001,0.01890230143199554,0.0,0.19420814408892756,0.00037921542338246756,1.1557404220468253,0.005000003079672183
0.17300000000000001,0.018928617221469223,0.0,0.19503203490921037,0.0003658148376724772,1.1576513978955787,0.00500000276784361
0.17400000000000002,0.018954933010942907,0.0,0.19589196445647028,0.00035289707344802204,1.159562072245112,0.005000002487794857
0.17500000000000002,0.018981248800416593,0.0,0.19678790828697473,0.0003404472944276401,1.161472447292763,0.005000002236327004
0.176,0.019007564589890277,0.0,0.1977198485927522,0.00032845066432986986,1.1633825252358694,0.005000002010548055
0.177,0.01903388037936396,0.0,0.19868777398514903,0.00031689234687324864,1.165292308271769,0.0050000018078457395
0.178,0.019060196168837647,0.0,0.1996916792801835,0.00030575750577631485,1.1672017985977996,0.005000001625862436
0.179,0.01908651195831133,0.0,0.200731565285148,0.0002950313047576066,1.1691109984112986,0.005000001462472103
0.18,0.019112827747785013,0.0,0.2018074385870367,0.00028469890753566186,1.171019909909604,0.005000001315759073
0.181,0.019139143537258697,0.0,0.20291931134251034,0.0002747454778290188,1.1729285352900531,0.005000001183998593
0.182,0.01916545932673238,0.0,0.20406720106942589,0.0002651561793562155,1.1748368767499844,0.005000001065638985
0.183,0.019191775116206067,0.0,0.20525113044010826,0.00025591617583578985,1.176744936486735,0.005000000959285321
