Time [s],Lmtc [m],STIM [ ],Fsee [N],Gamma [ ],Lcerel [ ],q [ ]
0.0,0.0181391435372587,0.0,9.555840937780589,0.23972062568935323,1.0794854034359238,0.6724065021193962
0.001,0.017919143537258698,0.0,2.036279020411704,0.2310301335524414,1.0763998184588222,0.6428408606381475
0.002,0.0176991435372587,0.0,0.18905905037050325,0.2226547073148559,1.0680841505380716,0.6067121339308796
0.003,0.0174791435372587,0.0,0.0,0.21458292466774365,1.0576976766415542,0.5671750507583961
0.004,0.0172591435372587,0.0,0.0,0.20680378911300504,1.0471999156532936,0.5266680453098063
0.005,0.0170391435372587,0.0,0.0,0.19930663077206623,1.036702927043767,0.485837978992015
0.006,0.0168191435372587,0.0,0.0,0.19208133550883966,1.0262084904658002,0.4452344352574389
0.007,0.0165991435372587,0.0,0.0,0.18511796279139847,1.0157194636087987,0.40539522373043807
0.008,0.016379143537258698,0.0,0.0,0.17840703919407905,1.005243191901127,0.3668229124303
0.009000000000000001,0.0161591435372587,0.0,0.0,0.17193941873851304,0.9947959165372969,0.32996377110288233
0.01,0.016149669853048172,0.0,0.0,0.16570627139238087,0.9844128692685167,0.29519688374780145
0.011,0.016161248800416594,0.0,0.0,0.15969910178841143,0.9741605675617463,0.2628285504860396
0.012,0.01617282774778501,0.0,0.0,0.15390971890054653,0.9641421190196697,0.2330835468376929
0.013000000000000001,0.016184406695153433,0.0,0.5361466181571052,0.14833022367180976,0.9553557461281874,0.2067033863652773
0.014,0.016195985642521855,0.0,1.679671267852693,0.14295300798923152,0.9518124181575262,0.18605039002059548
0.015,0.016207564589890276,0.0,2.3334232616242696,0.13777073839421355,0.9508547117065587,0.1686254986249131
0.016,0.016219143537258698,0.0,2.671765779818064,0.13277634733711793,0.9508660993558942,0.15310893890784105
0.017,0.01623072248462712,0.0,2.7895951359613886,0.12796302333500448,0.9514326724486207,0.13910944221143812
0.018000000000000002,0.01624230143199554,0.0,2.662306079651464,0.12332420224217591,0.9525766903109041,0.12651385653655395
0.019,0.016253880379363962,0.0,2.4566378990411653,0.11885355710817891,0.9539210123269056,0.11503619603385812
0.02,0.01626545932673238,0.0,2.2541442657928115,0.11454499106979865,0.9552785232128878,0.1045243627374008
0.021,0.0162770382741008,0.0,2.065774799385651,0.11039263059997097,0.9566213629879103,0.09490947351892896
0.022,0.016288617221469223,0.0,1.8916489932402454,0.10639080499667466,0.9579471420630915,0.08613373601036513
0.023,0.016300196168837645,0.0,1.730944531857281,0.10253414689535265,0.9592558839558014,0.07814048302163784
0.024,0.016311775116206066,0.0,1.5828844445692027,0.0988171621905083,0.9605475654410979,0.07087308843501408
0.025,0.016323354063574488,0.0,1.4467817247149632,0.09523492609074466,0.9618219610371198,0.06427713953484226
0.026000000000000002,0.01633493301094291,0.0,1.3219741347243732,0.09178265165239649,0.9630788173814918,0.058300055891795426
0.027,0.01634651195831133,0.0,1.2078138137238084,0.08845557472423027,0.964317888171595,0.05289133834594812
0.028,0.01635809090567975,0.0,1.1036466445244943,0.08524907703568899,0.9655390176848232,0.04800313490437805
0.029,0.01636966985304817,0.0,1.008802669601889,0.08215874793042897,0.9667422043466843,0.0435905160481972
0.03,0.01638124880041659,0.0,0.9226167515709657,0.07918051070402886,0.9679275559625802,0.03961169359590664
0.031,0.016392827747785013,0.0,0.8444602587256573,0.07631028865206728,0.9690951803379125,0.03602752302672655
0.032,0.016404406695153435,0.0,0.7737081180651981,0.07354417538531913,0.97024532821445,0.03280176632054606
0.033,0.016415985642521856,0.0,0.7097440138886177,0.07087818492760113,0.9713783978329174,0.029900732408346217
0.034,0.016427564589890278,0.0,0.6519861681362878,0.06830885531219083,0.9724948357314376,0.02729386275474535
0.035,0.0164391435372587,0.0,0.5998955383111614,0.06583275578443816,0.9735950946742337,0.024952993077909935
0.036000000000000004,0.016450722484627117,0.0,0.5529748347554494,0.06344645558969306,0.9746796274255287,0.022852233962503868
0.037,0.01646230143199554,0.0,0.5107481250237266,0.06114670812438016,0.9757489848015583,0.020968030028845272
0.038,0.01647388037936396,0.0,0.4727694910769055,0.05893018235184692,0.9768037728629069,0.01927878226150756
0.039,0.01648545932673238,0.0,0.43863592104151766,0.05679401547032019,0.9778445717972131,0.017765143209625515
0.04,0.016497038274100803,0.0,0.4079790976907153,0.05473536628209646,0.9788719637716928,0.016409483933070422
0.041,0.016508617221469225,0.0,0.3804631429829928,0.05275139358947222,0.9798865309535618,0.015195767169871222
0.042,0.016520196168837646,0.0,0.3557796743504308,0.050839373032552725,0.9808888713080619,0.014109505491647677
0.043000000000000003,0.016531775116206068,0.0,0.3336428072793619,0.04899655743941432,0.9818796186054074,0.013137556037340998
0.044,0.016543354063574486,0.0,0.3137991246329666,0.047220532972587256,0.9828593623874401,0.01226819353789479
0.045,0.016554933010942907,0.0,0.2960187027625755,0.045508951341991496,0.9838286887162342,0.011490832005004637
0.046,0.01656651195831133,0.0,0.28009248672148046,0.04385946425754704,0.9847881836538638,0.010795899195601533
0.047,0.01657809090567975,0.0,0.265831547477289,0.04226981100017997,0.9857384240789887,0.010174788480607776
0.048,0.01658966985304817,0.0,0.25306298402552524,0.04073769570658581,0.9866799939578502,0.009619724421762016
0.049,0.016601248800416593,0.0,0.24163507986684898,0.03926108660569625,0.9876134308359057,0.009123794609620765
0.05,0.016612827747785015,0.0,0.23141104052026862,0.03783805127270969,0.9885392583442469,0.008680798760804695
0.051000000000000004,0.016624406695153436,0.0,0.22226573962759785,0.036466657282824506,0.9894580001139656,0.008285149893342541
0.052000000000000005,0.016635985642521854,0.0,0.21408549994644427,0.035145010747000126,0.9903701709322401,0.007931830660744987
0.053,0.016647564589890276,0.0,0.20676943010154072,0.0338712649681819,0.9912762544300542,0.00761634130454545
0.054,0.016659143537258697,0.0,0.20022672602962913,0.032643591660106455,0.9921767146860788,0.0073346429898929685
0.055,0.01667072248462712,0.0,0.1943796443926778,0.031460427922206144,0.9930719602839625,0.007083166135047818
0.056,0.01668230143199554,0.0,0.18915604712512202,0.030320210853913284,0.9939623998073536,0.006858699684610993
0.057,0.01669388037936396,0.0,0.1844887253093696,0.029221377554660213,0.9948484418399004,0.006658358416169455
0.058,0.016705459326732383,0.0,0.18031605654212274,0.028162400829099134,0.9957304832518843,0.006479558642270181
0.059000000000000004,0.0167170382741008,0.0,0.17658712540002466,0.027141807099436376,0.9966088559332609,0.006319990657796746
0.06,0.016728617221469223,0.0,0.17325445608054682,0.026158112087266237,0.997483886950535,0.00617758162842855
0.061,0.016740196168837644,0.0,0.17027906310508256,0.025210072801865695,0.9983558470925962,0.006050506725767095
0.062,0.016751775116206066,0.0,0.16762395201457406,0.02429644625251176,0.9992250071483338,0.005937126834750803
0.063,0.016763354063574487,0.0,0.16525385683509372,0.02341598944848143,1.0000916379066376,0.005835971116386844
0.064,0.01677493301094291,0.0,0.1631350017613498,0.0225674593990517,1.000956010156397,0.005745720997696651
0.065,0.01678651195831133,0.0,0.16124180539249525,0.02174973927843039,1.0018183276495467,0.005665207648010188
0.066,0.01679809090567975,0.0,0.15954954257118178,0.020961558628636384,1.0026787949509948,0.005593368923936056
0.067,0.01680966985304817,0.0,0.15803869822909186,0.02020191440838054,1.003537573558904,0.0055292781405626695
0.068,0.01682124880041659,0.0,0.15669111248382325,0.01946983113397189,1.0043948177073876,0.005472105893325974
0.069,0.016832827747785013,0.0,0.1554891444869661,0.018764333321719458,1.0052506816305593,0.00542110820718679
0.07,0.016844406695153434,0.0,0.1544155981877364,0.018084445487932272,1.0061053195625327,0.005375618331405548
0.07100000000000001,0.016855985642521856,0.0,0.15345428532741584,0.01742921885629596,1.0069588794861695,0.005335040873472129
0.07200000000000001,0.016867564589890277,0.0,0.15259525530556667,0.016797778020175357,1.007811450369668,0.005298846936270065
0.073,0.0168791435372587,0.0,0.15182641584708084,0.016189114994750484,1.008663144598287,0.00526655570694631
0.074,0.01689072248462712,0.0,0.1511395417936483,0.015602483353591804,1.0095140378247922,0.005237750824934482
0.075,0.016902301431995538,0.0,0.15052654437891452,0.015037136670269811,1.0103642057019497,0.005212058602839628
0.076,0.01691388037936396,0.0,0.14997945215968553,0.01449232851835499,1.0112137238825254,0.005189143944522595
0.077,0.01692545932673238,0.0,0.14949039383719678,0.01396731247141782,1.0120626680192852,0.005168706614670896
0.078,0.016937038274100803,0.0,0.1490515829688249,0.013461342103028792,1.012911113764995,0.005150477834557851
0.079,0.016948617221469224,0.0,0.14865713773938233,0.012973740047853954,1.013759118273008,0.005134219455322361
0.08,0.016960196168837646,0.0,0.1483035079671394,0.012503768805344807,1.0146067156552463,0.0051197163285592266
0.081,0.016971775116206067,0.0,0.1479861793910488,0.012050774455620451,1.0154539501131468,0.00510677865036933
0.082,0.01698335406357449,0.0,0.14770171788354,0.011614193725708688,1.0163008552459558,0.005095238927754841
0.083,0.016994933010942907,0.0,0.14744671360838776,0.011193463342637319,1.0171474646529193,0.005084946921522795
0.084,0.017006511958311328,0.0,0.1472177775526532,0.010788020033434145,1.0179938119332839,0.005075767981756072
0.085,0.01701809090567975,0.0,0.14701153843141362,0.010397300525126968,1.0188399306862954,0.005067581528924761
0.08600000000000001,0.01702966985304817,0.0,0.14682463996533093,0.010020741544743587,1.0196858545112004,0.005060279669770347
0.08700000000000001,0.017041248800416593,0.0,0.14665576117882553,0.0096579255593786,1.020531596456902,0.00505376852940211
0.088,0.017052827747785014,0.0,0.14650249134219837,0.009308157169995552,1.0213771807150962,0.0050479591636166336
0.089,0.017064406695153436,0.0,0.1463633539196124,0.008971003423546314,1.022222622054944,0.005042776610485776
0.09,0.017075985642521857,0.0,0.14623704268196194,0.00864605510514839,1.0230679335629682,0.005038153955129857
0.091,0.017087564589890275,0.0,0.14612225540957058,0.008332902999919274,1.023913128325692,0.005034031151272758
0.092,0.017099143537258697,0.0,0.1460176933593931,0.008031137892976459,1.0247582194296385,0.00503035436137013
0.093,0.017110722484627118,0.0,0.1459220607886308,0.007740350569437445,1.0256032199613307,0.005027075354232641
0.094,0.01712230143199554,0.0,0.14583406453497028,0.007460131814419724,1.026448143007292,0.005024150955853003
0.095,0.01713388037936396,0.0,0.14575241365348432,0.007190072413040794,1.0272930016540454,0.0050215425493940575
0.096,0.017145459326732383,0.0,0.14567639010164207,0.0069298315721903914,1.0281378031673156,0.005019216227241194
0.097,0.017157038274100804,0.0,0.14560579527423684,0.006678998240588053,1.0289825495274811,0.0050171410132382015
0.098,0.017168617221469222,0.0,0.14553981881114597,0.006437193008018889,1.0298272489592482,0.005015289512315312
0.099,0.017180196168837644,0.0,0.14547800891593737,0.006204127510370921,1.0306719060395337,0.005013637895269976
0.1,0.017191775116206065,0.0,0.14541991436448456,0.005979513383532169,1.0315165253452552,0.005012164770979548
0.101,0.017203354063574487,0.0,0.145365084444567,0.005763062263390654,1.0323611114533298,0.005010850953097036
0.10200000000000001,0.017214933010942908,0.0,0.1453130689021906,0.0055544857858343955,1.0332056689406748,0.005009679246982765
0.10300000000000001,0.01722651195831133,0.0,0.1452634178948516,0.005353495586751415,1.0340502023842075,0.0050086342553665375
0.10400000000000001,0.01723809090567975,0.0,0.1452156819517935,0.005159803302029734,1.034894716360845,0.005007702201322459
0.105,0.017249669853048172,0.0,0.1451694119410093,0.004973120567557374,1.035739215447505,0.005006870767223264
0.106,0.017261248800416594,0.0,0.1451246883498878,0.004793248683428336,1.0365836988150063,0.00500612931521438
0.107,0.017272827747785012,0.0,0.14508119003071862,0.004619838538653018,1.0374281697366268,0.005005467708809072
0.108,0.017284406695153434,0.0,0.14503875005751105,0.004452682606875793,1.038272629912179,0.005004877448418687
0.109,0.017295985642521855,0.0,0.14499721593265502,0.004291578138781739,1.0391170808951697,0.005004350919486714
0.11,0.017307564589890276,0.0,0.14495643525509266,0.004136322385055938,1.0399615242391063,0.005003881289133273
0.111,0.017319143537258698,0.0,0.14491625571587638,0.003986712596383472,1.0408059614974956,0.005003462431002943
0.112,0.01733072248462712,0.0,0.14487652509474702,0.0038425460234494217,1.041650394223845,0.005003088856675148
0.113,0.01734230143199554,0.0,0.14483709125741007,0.0037036199169388673,1.0424948239716614,0.005002755653144158
0.114,0.01735388037936396,0.0,0.14479780215347257,0.0035697315275368914,1.0433392522944518,0.005002458425904943
0.115,0.01736545932673238,0.0,0.1447585767791704,0.0034407344108467377,1.0441836800200173,0.00500219336207028
0.116,0.017377038274100802,0.0,0.14471940655213716,0.0033164192294182107,1.045028107235894,0.005001956915580215
0.117,0.017388617221469223,0.0,0.1446801745971331,0.0031965475528283223,1.045872535137417,0.005001745874204344
0.11800000000000001,0.017400196168837645,0.0,0.1446408366560237,0.003080984626227178,1.0467169641776526,0.005001557553490238
0.11900000000000001,0.017411775116206066,0.0,0.14460134849481307,0.002969595694764882,1.0475613948096678,0.005001389540369551
0.12,0.017423354063574488,0.0,0.14456166590392258,0.002862246003591541,1.0484058274865296,0.005001239667594348
0.121,0.01743493301094291,0.0,0.14452174469840096,0.002758800797857256,1.0492502626613047,0.005001105990345299
0.122,0.017446511958311327,0.0,0.14448154071836314,0.002659125322712135,1.0500947007870598,0.00500098676485418
0.123,0.01745809090567975,0.0,0.1444410098292991,0.002563084823306281,1.050939142316862,0.005000880428892031
0.124,0.01746966985304817,0.0,0.14440010792259866,0.002470544544789799,1.0517835877037778,0.005000785583982939
0.125,0.017481248800416592,0.0,0.14435879091604542,0.002381369732312795,1.0526280374008743,0.0050007009792116626
0.126,0.017492827747785013,0.0,0.14431701475452666,0.0022954256310253724,1.0534724918612182,0.005000625496501353
0.127,0.017504406695153435,0.0,0.1442747509181203,0.002212598662484241,1.0543169513790238,0.0050005581543411635
0.128,0.017515985642521856,0.0,0.1442320380902123,0.0021327952733375555,1.0551614155601987,0.005000498088453591
0.129,0.017527564589890278,0.0,0.14418883362921076,0.002055841157640074,1.056005884843747,0.0050004444664728444
0.13,0.017539143537258696,0.0,0.14414512592070117,0.0019816503943879743,1.0568503593509886,0.005000396608711651
0.131,0.017550722484627117,0.0,0.14410090336023312,0.001910137062577435,1.057694839203243,0.005000353904053572
0.132,0.01756230143199554,0.0,0.14405615435327326,0.0018412152412046353,1.0585393245218302,0.005000315803508986
0.133,0.01757388037936396,0.0,0.1440108673155944,0.0017747990092657525,1.05938381542807,0.00500028181431703
0.134,0.017585459326732382,0.0,0.14396503067344768,0.0017108024457569658,1.0602283120432823,0.005000251494554029
0.135,0.017597038274100803,0.0,0.14391863286386303,0.001649139629674453,1.0610728144887867,0.005000224448211133
0.136,0.017608617221469225,0.0,0.14387166233474447,0.0015897246400143927,1.0619173228859031,0.005000200320706095
0.137,0.017620196168837646,0.0,0.143824107545205,0.0015324715557729633,1.0627618373559518,0.0050001787947961005
0.138,0.017631775116206068,0.0,0.1437759569657951,0.0014772944559463428,1.063606358020252,0.005000159586860655
0.139,0.017643354063574486,0.0,0.1437271997150329,0.0014241122338215567,1.0644508849935932,0.005000142445066491
0.14,0.017654933010942907,0.0,0.14367784766812913,0.0013729217607353133,1.0652954181572893,0.005000127167421139
0.14100000000000001,0.01766651195831133,0.0,0.1436278907676638,0.0013235391875651952,1.0661399576177857,0.005000113519519908
0.14200000000000002,0.01767809090567975,0.0,0.14357732646678445,0.0012759130863220914,1.06698450340452,0.005000101331321067
0.14300000000000002,0.017689669853048172,0.0,0.14352615222451237,0.0012299920290168912,1.067829055546931,0.00500009044967512
0.14400000000000002,0.017701248800416593,0.0,0.14347436550596426,0.0011857245876604836,1.0686736140744566,0.005000080736768875
0.145,0.017712827747785015,0.0,0.1434219637822789,0.001143059334263759,1.0695181790165358,0.005000072068697933
0.146,0.017724406695153433,0.0,0.1433689445308392,0.001101944840837604,1.0703627504026063,0.005000064334158613
0.147,0.017735985642521854,0.0,0.1433153052352241,0.001062329679392909,1.0712073282621069,0.0050000574332508055
0.148,0.017747564589890276,0.0,0.14326104338527118,0.0010241624219405631,1.0720519126244756,0.005000051276383733
0.149,0.017759143537258697,0.0,0.14320615647714,0.0009873916404914555,1.0728965035191513,0.005000045783277038
0.15,0.01777072248462712,0.0,0.143150642013486,0.0009519659070564752,1.0737411009755717,0.00500004088205005
0.151,0.01778230143199554,0.0,0.14309449750337655,0.0009178337936465115,1.0745857050231755,0.0050000365083925245
0.152,0.017793880379363962,0.0,0.1430377204624165,0.0008849438722724536,1.075430315691401,0.0050000326048105295
0.153,0.01780545932673238,0.0,0.14298030841281228,0.0008532447149451903,1.0762749330096864,0.005000029119941565
0.154,0.0178170382741008,0.0,0.14292225888347346,0.0008226848936756109,1.0771195570074703,0.005000026007933368
0.155,0.017828617221469223,0.0,0.14286355989318886,0.0007932263808733196,1.0779641878121575,0.005000023229137102
0.156,0.017840196168837644,0.0,0.1428042312917013,0.0007648305864387905,1.078808825223567,0.005000020747923293
0.157,0.017851775116206066,0.0,0.1427442733228564,0.0007374617329879872,1.079653469243305,0.005000018532579235
0.158,0.017863354063574487,0.0,0.14268368331672615,0.0007110853494231068,1.0804981199030377,0.0050000165547531995
0.159,0.01787493301094291,0.0,0.14262245861033557,0.000685666964646347,1.0813427772344306,0.00500001478901274
0.16,0.01788651195831133,0.0,0.14256059654769543,0.0006611721075599049,1.0821874412691501,0.005000013212562149
0.161,0.017898090905679752,0.0,0.14249809448001954,0.0006375663070659779,1.0830321120388617,0.005000011804984866
0.162,0.01790966985304817,0.0,0.1424349504027449,0.000614815563444331,1.083876789568663,0.005000010548034831
0.163,0.01792124880041659,0.0,0.14237116791878884,0.0005928885781433306,1.0847214738258972,0.005000009425527161
0.164,0.017932827747785013,0.0,0.14230674688364864,0.0005717558682856104,1.0855661648165762,0.00500000842305371
0.165,0.017944406695153434,0.0,0.14224168657304553,0.0005513897245292014,1.0864108625527447,0.005000007527782777
0.166,0.017955985642521856,0.0,0.1421759862683086,0.0005317624375321347,1.0872555670464472,0.005000006728211652
0.167,0.017967564589890277,1.0,0.1421403004656346,0.004915179827440564,1.0880999619246474,0.0050083273834341056
0.168,0.0179791435372587,1.0,0.1523517726212688,0.02282566088749815,1.0888404317084628,0.006136877185274054
0.169,0.01799072248462712,1.0,0.21599674759096132,0.04041377205163044,1.0891052487670545,0.012041507481388904
0.17,0.01800230143199554,1.0,0.3308767784497085,0.05768531573101652,1.089089669823296,0.026663805470010862
0.171,0.01801388037936396,1.0,0.513357624668964,0.07464598991343266,1.088834362571184,0.05303674685639433
0.17200000000000001,0.01802545932673238,1.0,0.8255602872106833,0.09130138949696977,1.088183409773936,0.09245942519737207
0.17300000000000001,0.018037038274100803,1.0,1.352309746052144,0.10765700956223513,1.0870486553653465,0.14407499058117823
0.17400000000000002,0.018048617221469224,1.0,2.099394996837635,0.123718245634016,1.0856667891719272,0.20529186218872345
0.17500000000000002,0.018060196168837646,1.0,2.980512673550763,0.1394903963054221,1.0843514814441806,0.27260448968480944
0.176,0.018071775116206067,1.0,3.9304719257756666,0.15497866485690814,1.083202403999637,0.34224369720894554
0.177,0.018083354063574485,1.0,4.917303111886474,0.1701881613752877,1.0822180515887656,0.4108403830391592
0.178,0.018094933010942907,1.0,5.917945158093025,0.1851238989983975,1.0813875760919491,0.47586868506087576
