Time [s],Lmtc [m],STIM [ ],Fsee [N],Gamma [ ],Lcerel [ ],q [ ]
0.0,0.0181391435372587,0.0,9.080395865619511,0.22984793625269603,1.0800914674348996,0.6427909139979331
0.001,0.0178991435372587,0.0,1.479069075874573,0.22151536954655368,1.0765824442348906,0.6116660421167482
0.002,0.017659143537258698,0.0,0.01943710603575552,0.2134848925254067,1.067467088431571,0.5736327154810513
0.003,0.0174191435372587,0.0,0.0,0.20574555305892459,1.056972567162846,0.533231755637813
0.004,0.0171791435372587,0.0,0.0,0.1982867955453305,1.0464754955676834,0.4924170348420515
0.005,0.0169391435372587,0.0,0.0,0.1910984505707728,1.035980430524454,0.4517398764180871
0.006,0.0166991435372587,0.0,0.0,0.18417071126667053,1.025490161011189,0.41174228073136987
0.007,0.0164591435372587,0.0,0.0,0.1774941310354192,1.0150111240014315,0.37293408152761065
0.008,0.016219143537258698,0.0,0.0,0.1710596040681926,1.0045572024417169,0.33577117099619375
0.009000000000000001,0.016147564589890275,0.0,0.0,0.1648583567781008,0.9941572418895966,0.30064172332316885
0.01,0.016160196168837643,0.0,0.0,0.15888192572951187,0.9838677654832573,0.2678610506696684
0.011,0.01617282774778501,0.0,0.0,0.1531221692190066,0.9737868247681238,0.23766986463345316
0.012,0.01618545932673238,0.0,0.0,0.14757122585814406,0.9640513418962202,0.21022237213878958
0.013000000000000001,0.016198090905679752,0.0,0.6085467158603042,0.14222152694736934,0.9559806912166616,0.1863280951846148
0.014,0.01621072248462712,0.0,1.6310931965181656,0.13706577654142427,0.953033543296757,0.16769024417553932
0.015,0.01622335406357449,0.0,2.2093434233315237,0.13209694319534013,0.952326020880238,0.15185131231000706
0.016,0.016235985642521857,0.0,2.524997872947089,0.127308250406804,0.952448073360851,0.13772749273178672
0.017,0.016248617221469225,0.0,2.5946160912916154,0.12269316737950206,0.9531995221523779,0.12506157821559216
0.018000000000000002,0.016261248800416593,0.0,2.43872014438776,0.11824539994890904,0.954502681077253,0.11368653742877667
0.019,0.01627388037936396,0.0,2.2419919040384078,0.1139588824019339,0.9559238965093895,0.10331408955558033
0.02,0.01628651195831133,0.0,2.0552164896097613,0.10982776856905462,0.9573405493091541,0.0938307287591524
0.021,0.016299143537258698,0.0,1.882291329423513,0.10584642387445178,0.9587409442530057,0.08517510296107438
0.022,0.016311775116206066,0.0,1.7226924871760783,0.10200942061121025,0.960124344058743,0.07729062010312433
0.023,0.016324406695153434,0.0,1.575690617521154,0.09831160499661101,0.9614905946403605,0.07012191062627136
0.024,0.016337038274100803,0.0,1.4405984495313189,0.09474768038490733,0.9628394700198971,0.06361443233937761
0.025,0.01634966985304817,0.0,1.3167448112325895,0.09131299524963409,0.9641707468476385,0.05771658155881161
0.026000000000000002,0.01636230143199554,0.0,1.2034768125932211,0.08800292310161664,0.9654842018934445,0.05237878944412003
0.027,0.016374933010942908,0.0,1.1001532038041768,0.08481289525357626,0.9667796415581323,0.04755392711248653
0.028,0.016387564589890276,0.0,1.0061015953959482,0.08173843600348583,0.9680570797114685,0.043197603642523306
0.029,0.016400196168837644,0.0,0.9206485277315094,0.0787753712713156,0.9693166674800403,0.03926853303907386
0.03,0.016412827747785012,0.0,0.843143284800666,0.07591979284853786,0.9705586228198748,0.0357284207328059
0.031,0.01642545932673238,0.0,0.7729754597242019,0.07316779252662485,0.971783163686999,0.03254156405313012
0.032,0.01643809090567975,0.0,0.709549442341638,0.07051563581870783,0.9729906200537115,0.029675050213020943
0.033,0.016450722484627117,0.0,0.6522784013825504,0.06795945056162597,0.9741814809449767,0.02709832721965346
0.034,0.016463354063574485,0.0,0.6006187941856234,0.06549590531498574,0.9753562453958284,0.02478380509454991
0.035,0.016475985642521857,0.0,0.5540679390427219,0.06312175347594634,0.976515423396703,0.022706177167230612
0.036000000000000004,0.016488617221469225,0.0,0.512163822418293,0.06083374844166705,0.9776595249380371,0.020842229518672914
0.037,0.016501248800416594,0.0,0.47447888314536407,0.05862871440325565,0.9787890805338291,0.01917079236884813
0.038,0.016513880379363962,0.0,0.4406026355556379,0.05650353412455471,0.9799047323144039,0.017672603683910187
0.039,0.01652651195831133,0.0,0.41016838845870585,0.054455343259537256,0.981007076824098,0.01633029586483795
0.04,0.0165391435372587,0.0,0.38284266539416123,0.05248145545554432,0.9820967054392986,0.01512817826057881
0.041,0.016551775116206067,0.0,0.3583217126960871,0.05057918435991693,0.9831742095363926,0.014051989846705564
0.042,0.016564406695153435,0.0,0.336328977712008,0.04874591303715921,0.9842401811351903,0.013088834378477904
0.043000000000000003,0.016577038274100803,0.0,0.31660833327504617,0.04697902575988721,0.985295243873564,0.012227035227377451
0.044,0.01658966985304817,0.0,0.2989318167175816,0.045276139807750346,0.9863399869048389,0.01145614314098518
0.045,0.01660230143199554,0.0,0.28309414158150503,0.04363503034866702,0.9873749843112499,0.01076677643109472
0.046,0.016614933010942908,0.0,0.26890847673084306,0.04205347255055566,0.9884008101750319,0.010150454470987266
0.047,0.016627564589890276,0.0,0.25620541964518095,0.040529279500247845,0.9894180326849225,0.009599537355135924
0.048,0.016640196168837645,0.0,0.2448317637450869,0.039060312587278594,0.9904272099060685,0.009107154336517551
0.049,0.016652827747785013,0.0,0.23465057291882793,0.037644517964144884,0.9914288755546862,0.008667143893021466
0.05,0.01666545932673238,0.0,0.2255411152960642,0.03628006966552145,0.9924235253767687,0.008274025037326093
0.051000000000000004,0.01667809090567975,0.0,0.21739261340765775,0.03496514172608302,0.9934116551183092,0.007922858357711317
0.052000000000000005,0.016690722484627118,0.0,0.21010313605046538,0.03369790818050433,0.9943937605253007,0.007609198349729471
0.053,0.016703354063574486,0.0,0.20358385823144243,0.032476716047844675,0.9953702917526498,0.007329088157238078
0.054,0.016715985642521854,0.0,0.19775029540073427,0.03129963879321897,0.9963417184456239,0.007078909910527996
0.055,0.016728617221469223,0.0,0.19253422945495166,0.030165156879131103,0.9973084182475268,0.006855502795170437
0.056,0.01674124880041659,0.0,0.18787380364753792,0.029071825357658267,0.9982707532474755,0.006656037583775607
0.057,0.01675388037936396,0.0,0.1837111465743169,0.02801819928087763,0.9992290855345867,0.006477970022068541
0.058,0.01676651195831133,0.0,0.1799918718415803,0.027002833700866386,1.0001837771979771,0.006319014610997433
0.059000000000000004,0.0167791435372587,0.0,0.1766646210360826,0.026024283669701706,1.0011351903267636,0.006177120431851427
0.06,0.016791775116206067,0.0,0.1736893923738146,0.025081224807445235,1.002083605390317,0.006050464679938918
0.061,0.016804406695153436,0.0,0.17102979741894925,0.024172262094776617,1.003029287430459,0.0059374030586476795
0.062,0.016817038274100804,0.0,0.16865432286451115,0.023296225765791066,1.003972471056356,0.005836489130518395
0.063,0.016829669853048172,0.0,0.16653392017108076,0.022451977405612007,1.004913380287889,0.005746427420085239
0.064,0.01684230143199554,0.0,0.16464068508563773,0.02163837859936288,1.005852239144938,0.005666055177436255
0.065,0.01685493301094291,0.0,0.16294769765051015,0.020854290932167105,1.0067892716473843,0.0055943297544444924
0.066,0.016867564589890277,0.0,0.16143371332014483,0.02009869532341135,1.0077246549976788,0.0055303270069540335
0.067,0.016880196168837645,0.0,0.16007908597175677,0.019370392308019478,1.0086585570023325,0.00547320370940445
0.068,0.016892827747785014,0.0,0.15886809257155177,0.018668427658709724,1.009591112308045,0.005422224436398485
0.069,0.016905459326732382,0.0,0.157786871769644,0.0179919161856677,1.0105224412651692,0.00537673414596399
0.07,0.01691809090567975,0.0,0.15682188955691423,0.017339972699079022,1.0114526642240582,0.005336144922454984
0.07100000000000001,0.01693072248462712,0.0,0.15595989291107873,0.01671171200912931,1.0123819015350652,0.005299929564403115
0.07200000000000001,0.016943354063574487,0.0,0.1551878682265866,0.016106248926004173,1.013310273548543,0.00526761572137439
0.073,0.016955985642521855,0.0,0.15449494040066855,0.015522767312859662,1.0142378814516508,0.00523878391989234
0.074,0.016968617221469223,0.0,0.15387437435164364,0.014960405994637946,1.0151647869031262,0.0052130562164583085
0.075,0.01698124880041659,0.0,0.1533180314488054,0.01441834362446982,1.0160910665218115,0.0051900963477605104
0.076,0.01699388037936396,0.0,0.15281997832140096,0.013895911969906456,1.0170167759535402,0.0051696095018985075
0.077,0.017006511958311328,0.0,0.1523743524221348,0.013392442798499032,1.0179419708441462,0.005151331048992085
0.078,0.017019143537258696,0.0,0.1519753520592576,0.012907267877798724,1.0188667068394635,0.005135023654994252
0.079,0.017031775116206065,0.0,0.15161722745165682,0.01243971897535671,1.0197910395853254,0.005120474644493518
0.08,0.017044406695153433,0.0,0.15129427280618676,0.011989127858724163,1.020715024727566,0.005107493594430097
0.081,0.0170570382741008,0.0,0.15100255865971068,0.01155489976832107,1.0216387004973218,0.005095912085871961
0.082,0.017069669853048173,0.0,0.15073963036217233,0.011136363698742524,1.022562090596961,0.005085577308180269
0.083,0.01708230143199554,0.0,0.1505022755985084,0.010732944852730651,1.023485226496258,0.005076354984961378
0.084,0.01709493301094291,0.0,0.1502880583545585,0.010344142687117634,1.0244081320427745,0.005068126434199094
0.085,0.017107564589890278,0.0,0.1500945550265162,0.00996945665873565,1.0253308310840723,0.00506078515993285
0.08600000000000001,0.017120196168837646,0.0,0.1499193527005754,0.009608386224416876,1.0262533474677134,0.005054235680896216
0.08700000000000001,0.017132827747785014,0.0,0.1497600476203055,0.009260430840993494,1.02717570504126,0.005048392461244482
0.088,0.017145459326732383,0.0,0.14961424384196964,0.008925089965297686,1.0280979276522741,0.005043178935780019
0.089,0.01715809090567975,0.0,0.1494807912422138,0.008601984869585633,1.0290200266778102,0.005038528366482463
0.09,0.01717072248462712,0.0,0.14935825222016327,0.008290515573323519,1.0299420164257045,0.005034377838671477
0.091,0.017183354063574487,0.0,0.14924543497549939,0.007990266430669895,1.0308639087647056,0.005030673695395857
0.092,0.017195985642521856,0.0,0.14914143546402056,0.007700877136218256,1.0317857126926344,0.005027368485668953
0.093,0.017208617221469224,0.0,0.1490453517165231,0.007421987384562091,1.0327074372073122,0.0050244196028751955
0.094,0.017221248800416592,0.0,0.14895628358949736,0.007153236870294892,1.0336290913065598,0.0050217888224920165
0.095,0.01723388037936396,0.0,0.1488733325424125,0.006894265288010151,1.0345506839881982,0.005019441879744393
0.096,0.01724651195831133,0.0,0.14879560144189127,0.00664471233230136,1.035472224250048,0.005017348084244679
0.097,0.017259143537258697,0.0,0.14872219439252363,0.00640421769776201,1.0363937210899306,0.00501547996883861
0.098,0.017271775116206065,0.0,0.14865226438268125,0.006172430748923827,1.0373151830234058,0.00501381303926724
0.099,0.017284406695153434,0.0,0.14858601646024283,0.005949097516479244,1.0382366079561114,0.005012326034362342
0.1,0.017297038274100802,0.0,0.14852270976327445,0.005733780042174442,1.0391580033430514,0.0050109987068472014
0.101,0.01730966985304817,0.0,0.1484620409970887,0.005526227253328045,1.040079372228029,0.005009814148669839
0.10200000000000001,0.01732230143199554,0.0,0.1484037071885386,0.005326188077258681,1.0410007176548473,0.005008757168085177
0.10300000000000001,0.01733493301094291,0.0,0.14834740566089272,0.005133411441284977,1.0419220426673093,0.00500781412707302
0.10400000000000001,0.01734756458989028,0.0,0.14829283401180793,0.00494764627272556,1.042843350309218,0.005006972792670582
0.105,0.017360196168837647,0.0,0.14823969009437443,0.004768641498899057,1.0437646436243766,0.005006222201202803
0.106,0.017372827747785015,0.0,0.14818767200113317,0.004596146047124092,1.044685925656588,0.005005552534451298
0.107,0.017385459326732383,0.0,0.14813647805120322,0.004429908844719292,1.0456071994496552,0.005004955006858565
0.108,0.01739809090567975,0.0,0.14808586664890996,0.004269699567560448,1.0465284674420574,0.00500442183167483
0.109,0.01741072248462712,0.0,0.14803591573949584,0.004115313538124551,1.0474497288425904,0.0050039461172397826
0.11,0.017423354063574488,0.0,0.1479863918491318,0.003966472749328532,1.0483709860093418,0.005003521475900025
0.111,0.017435985642521856,0.0,0.1479371958504768,0.00382300271454501,1.049292239942957,0.005003142497232238
0.112,0.017448617221469225,0.0,0.1478882286831811,0.003684728947146603,1.0502134916440817,0.005002804320533825
0.113,0.017461248800416593,0.0,0.147839391353083,0.00355147696050593,1.0511347421133619,0.005002502582670881
0.114,0.01747388037936396,0.0,0.1477905849315989,0.0034230722679956106,1.0520559923514432,0.005002233370400114
0.115,0.01748651195831133,0.0,0.14774171055551902,0.0032993403829882626,1.0529772433589712,0.005001993176836547
0.116,0.017499143537258698,0.0,0.14769266942700887,0.003180106818856506,1.053898496136592,0.00500177886175757
0.117,0.017511775116206066,0.0,0.14764336281420387,0.003065197088972958,1.054819751684951,0.005001587615452066
0.11800000000000001,0.017524406695153434,0.0,0.14759373478381296,0.0029544834350381218,1.055741010571914,0.005001416997561672
0.11900000000000001,0.017537038274100802,0.0,0.14754379490565223,0.0028478006094620864,1.0566622727022286,0.005001264760968992
0.12,0.01754966985304817,0.0,0.14749345884316334,0.002744924508325047,1.0575835389319708,0.005001128820236664
0.121,0.01756230143199554,0.0,0.1474426989857953,0.002645740881824644,1.0585048095430154,0.005001007461747211
0.122,0.017574933010942907,0.0,0.14739148774397196,0.002550135480158519,1.0594260848172372,0.005000899144065748
0.123,0.017587564589890275,0.0,0.14733979754950063,0.0024579940535243154,1.060347365036511,0.005000802481845329
0.124,0.017600196168837644,0.0,0.14728760085606912,0.002369202352119675,1.061268650482711,0.005000716231085855
0.125,0.017612827747785012,0.0,0.14723487013965686,0.0022836461261422393,1.0621899414377118,0.005000639275649735
0.126,0.01762545932673238,0.0,0.14718157789903466,0.002201211125789651,1.0631112381833887,0.005000570614942855
0.127,0.01763809090567975,0.0,0.14712769665636552,0.002121783101259552,1.0640325410016158,0.005000509352674551
0.128,0.01765072248462712,0.0,0.14707319895769444,0.0020452478027495843,1.064953850174268,0.005000454686615327
0.129,0.01766335406357449,0.0,0.14701805737346466,0.00197149098045739,1.0658751659832197,0.005000405899275825
0.13,0.017675985642521857,0.0,0.1469622444992967,0.001900398384580611,1.066796488710346,0.005000362349435263
0.131,0.017688617221469225,0.0,0.14690577223675755,0.001831912393420161,1.06771781823877,0.005000323496453953
0.132,0.017701248800416593,0.0,0.14684863940317947,0.0017658877017241055,1.0686391545844223,0.005000288805949891
0.133,0.01771388037936396,0.0,0.1467908284503616,0.0017022237996542258,1.0695604979294904,0.005000257826398551
0.134,0.01772651195831133,0.0,0.14673233241508907,0.0016408491078815745,1.0704818483488383,0.005000230167263135
0.135,0.017739143537258698,0.0,0.1466731443449094,0.0015816920470772043,1.07140320591733,0.005000205477320562
0.136,0.017751775116206066,0.0,0.1466132572983955,0.001524681037912168,1.072324570709829,0.005000183440975874
0.137,0.017764406695153435,0.0,0.14655266434524866,0.001469744501057518,1.0732459428011993,0.005000163774887914
0.138,0.017777038274100803,0.0,0.14649135856654033,0.0014168108571843072,1.0741673222663044,0.005000146224883906
0.139,0.01778966985304817,0.0,0.14642933305478145,0.0013658085269635878,1.0750887091800083,0.005000130563141764
0.14,0.01780230143199554,0.0,0.1463665809142552,0.0013166659310664128,1.0760101036171745,0.005000116585620227
0.14100000000000001,0.017814933010942908,0.0,0.14630309526107743,0.0012693114901638348,1.0769315056526672,0.005000104109718021
0.14200000000000002,0.017827564589890276,0.0,0.14623886922345847,0.0012236736249269064,1.0778529153613496,0.0050000929721444095
0.14300000000000002,0.017840196168837644,0.0,0.14617389587443502,0.001179681277042004,1.0787743328187722,0.005000083027101925
0.14400000000000002,0.017852827747785013,0.0,0.14610817649335947,0.0011372829901519779,1.079695758017079,0.005000074148469106
0.145,0.01786545932673238,0.0,0.14604171799840293,0.0010964125133883908,1.0806171908910565,0.005000066220061363
0.146,0.01787809090567975,0.0,0.14597451722179053,0.001057020279930391,1.0815386314782047,0.005000059141107498
0.147,0.017890722484627117,0.0,0.14590657100506266,0.0010190567229571294,1.082460079816023,0.005000052821118331
0.148,0.017903354063574486,0.0,0.1458378761990715,0.0009824722756477562,1.0833815359420114,0.005000047178904172
0.149,0.017915985642521854,0.0,0.14576842966413914,0.0009472173711814216,1.0843029998936693,0.005000042141677523
0.15,0.017928617221469226,0.0,0.14569822827019177,0.0009132424427372756,1.0852244717084965,0.005000037644234669
0.151,0.017941248800416594,0.0,0.14562726892652217,0.00088049793898549,1.0861459514236886,0.0050000336282120875
0.152,0.017953880379363962,0.0,0.14555555363130937,0.0008489388215506174,1.0870674390246429,0.005000030041916886
0.153,0.01796651195831133,1.0,0.1466221656327579,0.01286029083057658,1.087977337440848,0.0051807330598480136
0.154,0.0179791435372587,1.0,0.1766165047397428,0.030627768218999565,1.0886074851220622,0.007905092726451124
0.155,0.017991775116206067,1.0,0.2727625472906098,0.048075449684343206,1.0887344329909447,0.017189333096680852
0.156,0.018004406695153435,1.0,0.4225818075759683,0.06520909120932107,1.0886607121775018,0.03668265094778529
0.157,0.018017038274100804,1.0,0.6627434996154258,0.08203434532347871,1.0883050472500106,0.06874988491789352
0.158,0.018029669853048172,1.0,1.068915270499232,0.09855676228619907,1.0875154309222,0.11376700779519619
0.159,0.01804230143199554,1.0,1.7056119539179135,0.11478179324102673,1.0863187187796384,0.17002703373366593
0.16,0.01805493301094291,1.0,2.5290525495435943,0.13071479068068434,1.0850270575845244,0.23444279485508468
0.161,0.018067564589890277,1.0,3.455212174021235,0.1463610109965102,1.083858255601807,0.3033013890468737
0.162,0.018080196168837645,1.0,4.437072989080437,0.16172561577701788,1.0828521278707153,0.3729253557536105
0.163,0.018092827747785013,1.0,5.447475792184255,0.17681366876782187,1.08200217392432,0.44027782847111724
0.164,0.01810545932673238,1.0,6.463761716942259,0.19163016523787652,1.0813011363694327,0.5032475734457567
0.165,0.01811809090567975,1.0,7.465842230332328,0.20617997060371868,1.080743544841586,0.5606321619086719
0.166,0.018130722484627118,1.0,8.436908619493854,0.22046789650506193,1.0803237684846745,0.6119617384992176
0.16666666666666666,0.0181391435372587,1.0,9.060619702347902,0.22985002210420857,1.080117016393981,0.6428232353066805
