Time [s],Lmtc [m],STIM [ ],Fsee [N],Gamma [ ],Lcerel [ ],q [ ]
0.0,0.019639143537258697,0.0,11.088272064901837,0.24398226905580667,1.186968075701927,0.7766342344459654
0.001,0.019339143537258695,0.0,1.0154516128147473,0.23513727488902236,1.183170951876718,0.7524135736324697
0.002,0.019039143537258697,0.0,0.0,0.22661295671478818,1.173129905986346,0.7210298892710937
0.003,0.018739143537258696,0.0,0.0,0.21839765886408413,1.162563067071847,0.686837268880131
0.004,0.018439143537258697,0.0,0.0,0.21048020925005695,1.1520149743827355,0.6505180963811033
0.005,0.018139143537258696,0.0,0.0,0.20284995122655203,1.1414829259559807,0.6123986279076844
0.006,0.017839143537258698,0.0,0.0,0.19549605688810356,1.1309642111738856,0.5728857649817737
0.007,0.017539143537258696,0.0,0.0,0.18840875820491151,1.120456080176533,0.5324570066161453
0.008,0.017239143537258698,0.0,0.0,0.18157857306051814,1.1099557820486072,0.4916365367987062
0.009000000000000001,0.016939143537258696,0.0,0.0,0.1749960277746137,1.0994605977089376,0.45096755616769135
0.01,0.016639143537258698,0.0,0.0,0.16865206818525358,1.0889704937376126,0.410988222164822
0.011,0.016339143537258696,0.0,0.0,0.16253810150905326,1.0784917527297753,0.3722074949268631
0.012,0.016039143537258698,0.0,0.0,0.15664579133710504,1.0680385219330895,0.3350801458923904
0.013000000000000001,0.015739143537258696,0.0,0.0,0.15096710256941198,1.0576394860118843,0.2999924666019193
0.014,0.015439143537258698,0.0,0.0,0.14549429046725793,1.0473480584400179,0.26725527997600207
0.015,0.015139143537258697,0.0,0.0,0.14021988807736419,1.0372532205148206,0.2371008735446313
0.016,0.014839143537258698,0.0,0.0,0.13513670500316816,1.0274878923729915,0.20968130226933937
0.017,0.014644406695153435,0.0,0.0,0.13023780816025737,1.0182186886754534,0.18505872602876072
0.018000000000000002,0.014660196168837646,0.0,0.0,0.1255165173579069,1.0096158021476804,0.16319542422424957
0.019,0.014675985642521856,0.0,0.0,0.12096639196659414,1.0018123785617168,0.1439544802685281
0.02,0.014691775116206066,0.0,0.0,0.11658122720792381,0.9948712307343504,0.12711822523080987
0.021,0.014707564589890277,0.0,0.0,0.11235504304766228,0.9887822898071089,0.11242466452955632
0.022,0.014723354063574487,0.0,0.0,0.10828207522342025,0.9834799113552563,0.09960317422629537
0.023,0.014739143537258697,0.0,0.0,0.10435676727236878,0.9788683562406626,0.08839995747633282
0.024,0.014754933010942908,0.0,0.0,0.10057377065006207,0.9748447688824248,0.0785909662605051
0.025,0.01477072248462712,0.0,0.0,0.0969279223647895,0.9713118685632149,0.06998426965437299
0.026000000000000002,0.01478651195831133,0.0,0.0,0.09341425024304746,0.9681844092666606,0.062417745523221914
0.027,0.01480230143199554,0.0,0.0,0.09002796336813094,0.9653907378224875,0.0557547548420592
0.028,0.01481809090567975,0.0,0.0,0.08676444324049529,0.9628717812657588,0.04987965364186169
0.029,0.014833880379363961,0.0,0.0,0.08361923976947064,0.9605794911444625,0.044693973171501096
0.03,0.014849669853048171,0.0,0.0,0.08058806110834983,0.9584748274797382,0.04011324898507088
0.031,0.014865459326732382,0.0,0.0,0.0776667809213079,0.956526507822959,0.036064631651452336
0.032,0.014881248800416592,0.0,0.0,0.07485139859115654,0.9547084358873751,0.03248474271092057
0.033,0.014897038274100802,0.0,0.0,0.07213809413478156,0.9530002917562038,0.029318462206115718
0.034,0.014912827747785014,0.0,0.0,0.06952315396264361,0.9513846719437467,0.026517387698082477
0.035,0.014928617221469225,0.0,0.0,0.06700301715081158,0.9498476250071212,0.024039074213138438
0.036000000000000004,0.014944406695153435,0.0,0.0,0.06457425326621415,0.9483776094172062,0.02184615579319371
0.037,0.014960196168837646,0.0,0.0,0.062233522477637686,0.9469646081949923,0.01990562930816961
0.038,0.014975985642521856,0.0,0.0,0.059977670366552466,0.9456009706584695,0.018188460759880377
0.039,0.014991775116206066,0.0,0.0,0.05780360037520693,0.9442796675893717,0.016668909461685644
0.04,0.015007564589890277,0.0,0.0,0.05570833682345033,0.9429948891289388,0.015324235412630477
0.041,0.015023354063574487,0.0,0.0,0.05368905351735547,0.9417419886462438,0.014134359358818233
0.042,0.015039143537258697,0.0,0.0,0.05174297509252742,0.9405166758661921,0.01308146795819172
0.043000000000000003,0.01505493301094291,0.0,0.0,0.04986741917831814,0.9393152803570017,0.012149797329809819
0.044,0.01507072248462712,0.0,0.0,0.04805988829888431,0.9381350461582767,0.011325446544507758
0.045,0.01508651195831133,0.0,0.0,0.04631790955147405,0.9369732982451179,0.010596067512033625
0.046,0.01510230143199554,0.0,0.0,0.04463904575978822,0.9358275866245084,0.009950709010005221
0.047,0.01511809090567975,0.0,0.0,0.04302103774253872,0.9346960615272089,0.009379718483056935
0.048,0.015133880379363961,0.0,0.0,0.041461719789601205,0.9335771502390996,0.008874551934012778
0.049,0.015149669853048171,0.0,0.0,0.03995896803404101,0.9324693625527634,0.008427630693353148
0.05,0.015165459326732382,0.0,0.0,0.038510646853815424,0.9313712607556548,0.008032222687700152
0.051000000000000004,0.015181248800416592,0.0,0.0,0.03711479467634549,0.9302817639804224,0.007682400249224706
0.052000000000000005,0.015197038274100804,0.0,0.0,0.03576958015400965,0.9292000293018514,0.007372929604223706
0.053,0.015212827747785014,0.0,0.0,0.03447317193918634,0.9281252137947269,0.007099160520322823
0.054,0.015228617221469225,0.0,0.0,0.033223781665309496,0.9270565275572035,0.00685697310642927
0.055,0.015244406695153435,0.0,0.0,0.032019634876723616,0.9259932476822604,0.006642714241927578
0.056,0.015260196168837645,0.0,0.0,0.030859116687789467,0.9249348404016811,0.006453169477363625
0.057,0.015275985642521856,0.0,0.0,0.029740700866591946,0.923880867872692,0.00628549764845923
0.058,0.015291775116206066,0.0,0.0,0.028662861181215953,0.9228308922525196,0.006137175468665613
0.059000000000000004,0.015307564589890276,0.0,0.0,0.02762414213188809,0.9217845267899225,0.0060059722664212445
0.06,0.015323354063574487,0.0,0.0,0.026623012774693262,0.920741362726091,0.005889900125744584
0.061,0.015339143537258699,0.0,0.0,0.02565812215305049,0.9197011167065616,0.005787215960072365
0.062,0.01535493301094291,0.0,0.0,0.024728230122756076,0.9186635785182492,0.005696382877875647
0.063,0.01537072248462712,0.0,0.0,0.023832096539606294,0.9176285379480681,0.005616035610344235
0.064,0.01538651195831133,0.0,0.0,0.02296848125939742,0.9165957847829331,0.005544962304346842
0.065,0.01540230143199554,0.0,0.0,0.02213615669501305,0.915565115301674,0.005482088988130961
0.066,0.01541809090567975,0.0,0.0,0.021333987949072254,0.9145363783128555,0.005426469623666851
0.067,0.015433880379363961,0.0,0.0,0.020560905399142432,0.9135094514191712,0.005377268726888381
0.068,0.015449669853048171,0.0,0.0,0.019815853282822832,0.912484216650322,0.005333745475671899
0.069,0.015465459326732382,0.0,0.0,0.019097809037674555,0.9114605688613785,0.005295244298308916
0.07,0.015481248800416594,0.0,0.0,0.0184057981544063,0.9104384200253252,0.005261185857348125
0.07100000000000001,0.015497038274100804,0.0,0.029537485273644918,0.017738875114950793,0.9096118004835326,0.005231254208800193
0.07200000000000001,0.015512827747785014,0.0,0.10923310123555698,0.01709613076739279,0.9095282533428233,0.0052054211276428165
0.073,0.015528617221469225,0.0,0.15345914489885956,0.016476688536986125,0.9102026890865357,0.005183081629435762
0.074,0.015544406695153435,0.0,0.15847484399765824,0.01587970361724922,0.911304217507938,0.005163477642179863
0.075,0.015560196168837645,0.0,0.15865085730134237,0.015304361852901537,0.9124534430396719,0.005146003453837071
0.076,0.015575985642521856,0.0,0.158429654444406,0.01474987844787765,0.9136065499888154,0.0051303994319683655
0.077,0.015591775116206066,0.0,0.1582030889053048,0.01421550124921918,0.9147597109062305,0.005116463358670804
0.078,0.015607564589890276,0.0,0.1580072519281334,0.013700490490723277,0.9159125726148782,0.00510401652606129
0.079,0.015623354063574488,0.0,0.15783966995503515,0.013204150625724843,0.917065158783117,0.005092899977099051
0.08,0.015639143537258697,0.0,0.15769778409690677,0.012725811445035092,0.91821749404375,0.005082971699139704
0.081,0.01565493301094291,0.0,0.15757922009859682,0.012264926597780723,0.9193696013295403,0.0050741067419227915
0.082,0.015670722484627118,0.0,0.15748040569910998,0.011820644301225475,0.9205215154078578,0.005066187228849996
0.083,0.01568651195831133,0.0,0.15739949234614142,0.011392395615372692,0.9216732542259155,0.005059112953009235
0.084,0.01570230143199554,0.0,0.1573348167810637,0.010979656384301387,0.9228248339637881,0.005052794633685919
0.085,0.01571809090567975,0.0,0.1572847197874015,0.010581902452090574,0.9239762708015502,0.005047152046297954
0.08600000000000001,0.015733880379363963,0.0,0.15724754538377797,0.01019860966281927,0.9251275809192765,0.005042113164952557
0.08700000000000001,0.01574966985304817,0.0,0.15722164010364756,0.009829253860566493,0.9262787804970415,0.005037613378275433
0.088,0.015765459326732383,0.0,0.15720535236132577,0.009473310889411257,0.92742988571492,0.005033594773213189
0.089,0.015781248800416592,0.0,0.1571970319044188,0.009130256593432572,0.9285809127529866,0.005030005481797563
0.09,0.015797038274100804,0.0,0.1571964542418949,0.008799700687565021,0.9297318638080846,0.00502680038929277
0.091,0.015812827747785013,0.0,0.15720244178013165,0.008481036335679131,0.930882750435911,0.005023936952976957
0.092,0.015828617221469225,0.0,0.15721430443844037,0.008173876126316702,0.9320335794118868,0.005021379144403519
0.093,0.015844406695153433,0.0,0.1572314092181603,0.007877843062278511,0.9331843569537953,0.005019094664054497
0.094,0.015860196168837645,0.0,0.1572531232673823,0.0075925601463653365,0.9343350892794193,0.005017054492054484
0.095,0.015875985642521857,0.0,0.15727881378154132,0.007317650381377955,0.9354857826065418,0.0050152325770786875
0.096,0.015891775116206066,0.0,0.15730784791698452,0.007052736770117142,0.936636443152946,0.00501360555194105
0.097,0.015907564589890278,0.0,0.15733959271738476,0.006797442315383676,0.9377870771364148,0.005012152473916852
0.098,0.015923354063574487,0.0,0.15737341505262686,0.006551390019978334,0.9389376907747312,0.005010854587962747
0.099,0.0159391435372587,0.0,0.15740934365548653,0.0063143040376379906,0.9400882837926745,0.005009695607887621
0.1,0.015954933010942907,0.0,0.15744690642600798,0.006085743712573263,0.9412388608265841,0.005008660127564531
0.101,0.01597072248462712,0.0,0.15748586297522446,0.005865436076945558,0.9423894242390766,0.005007735147304731
0.10200000000000001,0.015986511958311328,0.0,0.15752597988128575,0.00565311029854666,0.9435399763235008,0.005006908988067894
0.10300000000000001,0.01600230143199554,0.0,0.1575670236179147,0.005448495545168352,0.944690519373206,0.005006171157111627
0.10400000000000001,0.016018090905679752,0.0,0.15760876054646328,0.005251320984602416,0.9458410556815411,0.005005512235382237
0.105,0.01603388037936396,0.0,0.1576509569100798,0.00506131578464064,0.946991587541855,0.0050049237745772935
0.106,0.016049669853048173,0.0,0.15769337882944545,0.004878209113074801,0.9481421172474969,0.005004398203172433
0.107,0.01606545932673238,0.0,0.1577357974005433,0.004701734376716423,0.9492926470418491,0.005003928752079881
0.108,0.016081248800416593,0.0,0.15777825710156257,0.004531741725184812,0.9504431764891934,0.005003509651289021
0.109,0.016097038274100802,0.0,0.1578205259892378,0.004367825835806095,0.9515937078613477,0.005003135098719309
0.11,0.016112827747785014,0.0,0.15786252897784242,0.004209801703689454,0.952744241892839,0.0050028004394375904
0.111,0.016128617221469223,0.0,0.15790419094227037,0.004057484323944072,0.9538947793181948,0.005002501483081248
0.112,0.016144406695153435,0.0,0.15794543671888678,0.003910688691679131,0.9550453208719423,0.0050022344607866705
0.113,0.016160196168837647,0.0,0.15798619110629816,0.003769229802003815,0.9561958672886088,0.005001995985700336
0.114,0.016175985642521856,0.0,0.15802637886652057,0.0036329226500273057,0.9573464193027219,0.005001783016821008
0.115,0.016191775116206068,0.0,0.1580659247263389,0.0035015822308587857,0.9584969776488087,0.005001592825934899
0.116,0.016207564589890276,0.0,0.15810475337857308,0.0033750235396074395,0.9596475430613965,0.005001422967418633
0.117,0.01622335406357449,0.0,0.15814278948385815,0.0032530615713824472,0.9607981162750129,0.005001271250697488
0.11800000000000001,0.016239143537258697,0.0,0.15817995767231863,0.0031355113212929936,0.9619486980241848,0.00500113571515856
0.11900000000000001,0.01625493301094291,0.0,0.1582162774213948,0.003022256567261542,0.9630992881153789,0.005001014681230481
0.12,0.016270722484627118,0.0,0.15825172522022893,0.0029130757520363223,0.9642498867756768,0.0050009065292340995
0.121,0.01628651195831133,0.0,0.15828625297548435,0.0028078127328824936,0.9654004944725378,0.005000809880480963
0.122,0.01630230143199554,0.0,0.1583198389994816,0.002706345714516919,0.9665511114150815,0.005000723529325049
0.123,0.01631809090567975,0.0,0.15835246160386265,0.0026085529016564584,0.967701737812427,0.005000646391041512
0.124,0.016333880379363962,0.0,0.1583840991002368,0.0025143124990179727,0.9688523738736933,0.005000577490538627
0.125,0.01634966985304817,0.0,0.15841472980067264,0.002423502711318322,0.9700030198079999,0.0050005159520176146
0.126,0.016365459326732383,0.0,0.15844433201863153,0.0023360017432743677,0.9711536758244658,0.005000460989512904
0.127,0.01638124880041659,0.0,0.15847288406939794,0.00225168779960297,0.9723043421322102,0.00500041189824915
0.128,0.016397038274100804,0.0,0.1585003642709642,0.002170439085020989,0.9734550189403525,0.005000368046754778
0.129,0.016412827747785012,0.0,0.15852675094461907,0.002092133804245286,0.9746057064580118,0.005000328869675316
0.13,0.016428617221469224,0.0,0.15855203931243794,0.002016694656708097,0.9757564047292023,0.005000293881983582
0.131,0.016444406695153437,0.0,0.15857623936243223,0.0019440057196618568,0.9769071136537608,0.005000262629529951
0.132,0.016460196168837645,0.0,0.15859932496431853,0.0018739012564349409,0.9780578334845423,0.005000234686355562
0.133,0.016475985642521857,0.0,0.15862129080268705,0.0018063053312615516,0.9792085642710943,0.005000209709012199
0.134,0.016491775116206066,0.0,0.1586421315724638,0.001741142008375891,0.9803593060629644,0.005000187388004983
0.135,0.016507564589890278,0.0,0.15866184197928437,0.001678335352012161,0.9815100589097003,0.005000167444682639
0.136,0.016523354063574486,0.0,0.15868041673954508,0.0016178094264045636,0.9826608228608497,0.0050001496283823225
0.137,0.0165391435372587,0.0,0.1586978505807008,0.0015594882957873006,0.9838115979659601,0.005000133713811481
0.138,0.016554933010942907,0.0,0.15871413824129166,0.0015032960243945744,0.9849623842745792,0.005000119498650161
0.139,0.01657072248462712,0.0,0.15872927447132015,0.0014491566764605868,0.9861131818362545,0.00500010680135803
0.14,0.01658651195831133,0.0,0.15874325403226672,0.0013969943162195396,0.9872639907005337,0.0050000954591712336
0.14100000000000001,0.01660230143199554,0.0,0.15875607169730005,0.0013467330079056355,0.9884148109169645,0.005000085326275071
0.14200000000000002,0.016618090905679752,0.0,0.1587677222516179,0.0012982968157530758,0.9895656425350944,0.005000076272139236
0.14300000000000002,0.01663388037936396,0.0,0.15877820049241306,0.0012516098039960623,0.990716485604471,0.005000068180003179
0.14400000000000002,0.016649669853048173,0.0,0.15878750977057446,0.0012066302005681146,0.9918673400912422,0.0050000609510226805
0.145,0.01666545932673238,0.0,0.15879565667821025,0.001163280959299815,0.9930182059300383,0.005000054490603838
0.146,0.016681248800416593,0.0,0.15880263292968805,0.001121474043999536,0.9941690832008852,0.005000048712860652
0.147,0.016697038274100802,0.0,0.15880843583835794,0.0010811640046157023,0.9953199719292605,0.005000043547021109
0.148,0.016712827747785014,0.0,0.15881306273045773,0.0010423053910967367,0.9964708721406418,0.005000038929306291
0.149,0.016728617221469226,0.0,0.15881651094508006,0.0010048527533910627,0.9976217838605066,0.0050000348022898105
0.15,0.016744406695153435,0.0,0.15881877783426904,0.0009687606414471032,0.9987727071143324,0.00500003111430973
0.151,0.016760196168837647,0.0,0.1588198607632467,0.0009339836052132814,0.9999236419275969,0.005000027818929337
0.152,0.016775985642521855,0.0,0.15881975711032895,0.0009004761946380206,1.0010745883257774,0.0050000248744433515
0.153,0.016791775116206067,0.0,0.15881846426717824,0.0008681929596697439,1.002225546334352,0.0050000222434263145
0.154,0.016807564589890276,0.0,0.15881597963881056,0.0008370884502568743,1.0033765159787973,0.005000019892320105
0.155,0.016823354063574488,0.0,0.15881230064371912,0.000807117216347835,1.0045274972845917,0.005000017791057666
0.156,0.016839143537258697,0.0,0.15880742471394646,0.0007782338078910491,1.0056784902772125,0.005000015912720235
0.157,0.01685493301094291,0.0,0.15880134929528636,0.0007503927748349398,1.006829494982137,0.005000014233225491
0.158,0.01687072248462712,0.0,0.1587940778132124,0.0007235956113269167,1.007980511366591,0.005000012733687906
0.159,0.01688651195831133,0.0,0.1587856106503826,0.0006977699402456329,1.00913153942764,0.005000011392894195
0.16,0.01690230143199554,0.0,0.1587759442189052,0.0006728512492821768,1.0102825792012524,0.005000010192564417
0.161,0.01691809090567975,0.0,0.1587650782578112,0.0006488145022015455,1.0114336306910463,0.0050000091183415845
0.162,0.016933880379363962,0.0,0.15875301251987092,0.0006256346627687355,1.0125846939006389,0.0050000081572604774
0.163,0.01694966985304817,0.0,0.15873974677145308,0.000603286694748744,1.0137357688336475,0.005000007297623238
0.164,0.016965459326732383,0.0,0.15872528079273251,0.0005817455619065678,1.0148868554936892,0.005000006528884829
0.165,0.01698124880041659,0.0,0.15870961437734202,0.0005609862280072036,1.016037953884382,0.0050000058415477265
0.166,0.016997038274100804,0.0,0.15869274733287814,0.0005409836568156485,1.0171890640093428,0.005000005227065202
0.167,0.017012827747785016,0.0,0.15867467948047514,0.0005217128120968993,1.0183401858721892,0.005000004677752615
0.168,0.017028617221469224,0.0,0.15865541065503905,0.000503148657615953,1.0194913194765387,0.005000004186706162
0.169,0.017044406695153436,0.0,0.1586349407052746,0.0004852661571378064,1.0206424648260086,0.005000003747728541
0.17,0.017060196168837645,0.0,0.15861326949360877,0.00046804027442745637,1.0217936219242163,0.005000003355261029
0.171,0.017075985642521857,0.0,0.15859039689624338,0.0004514459732498998,1.0229447907747793,0.005000003004321517
0.17200000000000001,0.017091775116206066,0.0,0.15856632280319544,0.00043545821737013367,1.0240959713813147,0.005000002690448036
0.17300000000000001,0.017107564589890278,0.0,0.15854104711824604,0.00042005197055315467,1.0252471637474403,0.005000002409647362
0.17400000000000002,0.017123354063574486,0.0,0.1585145697589935,0.00040520219656395995,1.0263983678767734,0.005000002158348309
0.17500000000000002,0.0171391435372587,0.0,0.15848689065695795,0.00039088385916754615,1.0275495837729312,0.005000001933359334
0.176,0.017154933010942907,0.0,0.15845801211856478,0.0003771020322055953,1.0287008114164518,0.005000001732272728
0.177,0.01717072248462712,0.0,0.15842793220436577,0.0003638144498359291,1.0298520508295061,0.00500000155221465
0.178,0.017186511958311328,0.0,0.15839664971010417,0.0003509939380422794,1.031003302027219,0.005000001390858123
0.179,0.01720230143199554,0.0,0.1583641645576413,0.00033862756358513747,1.032154565013846,0.005000001246302788
0.18,0.017218090905679752,0.0,0.1583304766826419,0.00032670239322499434,1.0333058397936437,0.005000001116831747
0.181,0.01723388037936396,0.0,0.15829558603474583,0.00031520549372234116,1.0344571263708684,0.005000001000895207
0.182,0.017249669853048172,0.0,0.15825949257763638,0.000304123931837669,1.0356084247497763,0.005000000897095413
0.183,0.01726545932673238,0.0,0.15822219628892756,0.0002934447743314689,1.0367597349346238,0.005000000804172802
0.184,0.017281248800416593,0.0,0.1581836971603358,0.0002831550879642321,1.0379110569296668,0.00500000072099328
0.185,0.017297038274100802,0.0,0.1581439951974769,0.0002732419394964496,1.0390623907391618,0.0050000006465365536
