Time [s],Lmtc [m],STIM [ ],Fsee [N],Gamma [ ],Lcerel [ ],q [ ]
0.0,0.020639143537258698,0.0,9.856234077213914,0.1791571275770094,1.261343252197336,0.6423368143938973
0.001,0.019799143537258698,0.0,0.0,0.17266231050275838,1.2528655688186803,0.6060197513700898
0.002,0.018959143537258697,0.0,0.0,0.1664029794465208,1.2418775351545008,0.5658177740509543
0.003,0.018119143537258697,0.0,0.0,0.16037053090526407,1.230943657303169,0.5248161616637803
0.004,0.017279143537258696,0.0,0.0,0.15455678339953088,1.2200603393042992,0.48356369129442783
0.005,0.0164391435372587,0.0,0.0,0.1489538503341248,1.209225964346205,0.44262329984865495
0.006,0.015599143537258699,0.0,0.0,0.1435540248558286,1.1984408359648366,0.40254113164295274
0.007,0.014759143537258698,0.0,0.0,0.13834996491091225,1.1877111067450368,0.36382294315775476
0.008,0.013919143537258698,0.0,0.0,0.13333457758414352,1.17705275896809,0.32691262674365185
0.009000000000000001,0.013668617221469226,0.0,0.0,0.12850101224510732,1.166496906113618,0.2921776433619362
0.01,0.013712827747785015,0.0,0.0,0.12384268785442394,1.156104947778111,0.2599084084487439
0.011,0.013757038274100804,0.0,0.0,0.11935324614011657,1.1459740160007004,0.2303116194158373
0.012,0.013801248800416593,0.0,0.0,0.1150265647624341,1.1362431767340988,0.20350972271836446
0.013000000000000001,0.013845459326732383,0.0,0.0,0.1108567425395898,1.1270788067392177,0.17953209976788034
0.014,0.013889669853048172,0.0,0.0,0.10683809415607765,1.118639041472879,0.15830671451518938
0.015,0.013933880379363961,0.0,0.0,0.10296513823928163,1.1110339871907151,0.13966628402522546
0.016,0.013978090905679752,0.0,0.0,0.0992325930168841,1.104300903155655,0.12337318890066071
0.017,0.014022301431995541,0.0,0.0,0.09563536739119027,1.0984079006144283,0.10915683674974583
0.018000000000000002,0.01406651195831133,0.0,0.0,0.09216855576274258,1.0932775200734388,0.0967480843421325
0.019,0.01411072248462712,0.0,0.0,0.0888274303559192,1.0888108054089796,0.08589999141829305
0.02,0.01415493301094291,0.0,0.0,0.085607434832476,1.0849057380811784,0.0763966073280201
0.021,0.014199143537258698,0.0,0.0,0.08250417669466949,1.08146803166693,0.06805378146907072
0.022,0.014243354063574487,0.0,0.0,0.07951342544359608,1.07841624841103,0.06071615486011356
0.023,0.014287564589890278,0.0,0.0,0.07663109998891633,1.0756819458359546,0.05425255348711657
0.024,0.014331775116206067,0.0,0.0,0.07385327384276125,1.0732093946102401,0.0485519029792319
0.025,0.014375985642521856,0.0,0.0,0.07117614936336082,1.0709524854921524,0.04351925289811357
0.026000000000000002,0.014420196168837647,0.0,0.0,0.06859608803486346,1.0688749947687701,0.03907327090710823
0.027,0.014464406695153436,0.0,0.0,0.06610955839519786,1.0669463962945833,0.035143395726292444
0.028,0.014508617221469225,0.0,0.0,0.06371318137117504,1.0651428446506173,0.031668467290726775
0.029,0.014552827747785015,0.0,0.0,0.061403677538712585,1.0634441171087297,0.028594940386319247
0.03,0.014597038274100804,0.0,0.0,0.05917791147242605,1.0618342900590265,0.025875998362738517
0.031,0.014641248800416593,0.0,0.0,0.05703282341774806,1.0602994537192751,0.023470378599665873
0.032,0.014685459326732384,0.0,0.0,0.05496551615416989,1.0588289902293824,0.021341882104358313
0.033,0.014729669853048173,0.0,0.0,0.05297315584260664,1.057413368577119,0.01945847823965339
0.034,0.014773880379363962,0.0,0.0,0.051053017944802485,1.0560447439362606,0.01779190782932477
0.035,0.014818090905679752,0.0,0.0,0.049202510783530065,1.0547168566711822,0.016317241906139382
0.036000000000000004,0.014862301431995541,0.0,0.0,0.04741907757477929,1.0534238765760882,0.015012362068436008
0.037,0.01490651195831133,0.0,0.0,0.04570029134114423,1.0521611535316808,0.013857748071085571
0.038,0.01495072248462712,0.0,0.0,0.0440438392574544,1.0509249010150405,0.012836145808020593
0.039,0.01499493301094291,0.0,0.0,0.04244744255958099,1.0497115366952074,0.011932240676618956
0.04,0.015039143537258699,0.0,0.0,0.04090889603703098,1.0485179942697398,0.011132478296371047
0.041,0.015083354063574488,0.0,0.0,0.03942614502265315,1.0473419365835923,0.010424903653929014
0.042,0.015127564589890279,0.0,0.0,0.03799717261780104,1.0461811681212603,0.009798908779652378
0.043000000000000003,0.015171775116206068,0.0,0.0,0.036619970855608724,1.045033604183985,0.009245076368537532
0.044,0.015215985642521856,0.0,0.0,0.03529268592739904,1.0438976740629986,0.008755109374203516
0.045,0.015260196168837645,0.0,0.0,0.03401354868199516,1.0427720610297795,0.008321667298503579
0.046,0.015304406695153436,0.0,0.0,0.03278081065141286,1.04165548742128,0.007938235206797973
0.047,0.015348617221469225,0.0,0.0,0.031592752839570366,1.0405467822973178,0.007599038275717232
0.048,0.015392827747785016,0.0,0.0,0.030447705946481794,1.0394449122041776,0.007298965721229591
0.049,0.015437038274100805,0.0,0.0,0.02934418745026072,1.0383491833609713,0.007033527867216527
0.05,0.015481248800416594,0.0,0.0,0.02828071482902069,1.0372589019868106,0.006798735131836372
0.051000000000000004,0.015525459326732383,0.0,0.0,0.027255805560875278,1.0361733743008072,0.0065910454963879735
0.052000000000000005,0.015569669853048173,0.0,0.0,0.026268068173787396,1.0350920318004415,0.0064073333182833175
0.053,0.015613880379363962,0.0,0.0,0.025316073692496163,1.034014300262797,0.0062448186225789
0.054,0.015658090905679753,0.0,0.0,0.024398597312896887,1.0329398237410574,0.006101067921780157
0.055,0.015702301431995542,0.0,0.0,0.023514415052680683,1.0318682471960956,0.0059739193796847535
0.056,0.01574651195831133,0.0,0.0,0.022662302929538653,1.0307992155887844,0.005861453944494575
0.057,0.01579072248462712,0.0,0.0,0.021841133327284993,1.0297324448867022,0.005761980414334378
0.058,0.01583493301094291,0.0,0.0,0.021049642512370036,1.02866758630954,0.005673983307198505
0.059000000000000004,0.0158791435372587,0.0,0.0,0.02028681159744369,1.0276044484152906,0.0055961448066995986
0.06,0.015923354063574487,0.0,0.0,0.01955165761681471,1.0265428629451034,0.005527297498209701
0.061,0.01596756458989028,0.0,0.0,0.018843197604791834,1.0254826616401282,0.005466404531154377
0.062,0.016011775116206068,0.0,0.0,0.01816044859568381,1.0244236762415146,0.0054125457310457556
0.063,0.016055985642521857,0.0,0.0,0.017502466239765556,1.0233657534858533,0.005364907679934792
0.064,0.016100196168837646,0.0,0.0,0.01686831044459546,1.0223087562198336,0.005322769272837802
0.065,0.016144406695153435,0.0,0.0,0.01625708778766071,1.0212525673620254,0.005285494031584972
0.066,0.016188617221469227,0.0,0.0,0.01566802407783733,1.020197111586614,0.005252523851133179
0.067,0.016232827747785016,0.0,0.0,0.01510034512400134,1.0191423135677848,0.005223362925340467
0.068,0.016277038274100805,0.0,0.0,0.014553276735028757,1.0180880979797233,0.005197571128705703
0.069,0.016321248800416594,0.0,0.0,0.014026044719795605,1.0170343894966152,0.005174758051709508
0.07,0.016365459326732383,0.0,0.0,0.013517995857051695,1.0159811401029337,0.005154582077068404
0.07100000000000001,0.016409669853048172,0.0,0.0,0.013028266160301146,1.014928266591067,0.0051367325451041985
0.07200000000000001,0.01645388037936396,0.0,0.0,0.012556240315090337,1.0138757335398176,0.00512094284840689
0.073,0.016498090905679753,0.0,0.0,0.012101327736514676,1.0128235104043202,0.005106976795694709
0.074,0.016542301431995542,0.0,0.0,0.01166293783966955,1.0117715666397094,0.0050946245256584975
0.075,0.01658651195831133,0.0,0.0,0.011240480039650369,1.0107198717011197,0.005083699713002665
0.076,0.01663072248462712,0.0,0.0,0.01083336375155253,1.009668395043686,0.005074037050532064
0.077,0.01667493301094291,0.0,0.0,0.010440998390471436,1.0086171061225433,0.005065489982760987
0.078,0.016719143537258698,0.0,0.0,0.010062832080589912,1.0075659804002128,0.005057929383031753
0.079,0.016763354063574487,0.0,0.0,0.00969837572288076,1.0065150027050684,0.005051241837583847
0.08,0.01680756458989028,0.0,0.015675879511109072,0.009347132498582307,1.005503374397055,0.005045334320343427
0.081,0.01685177511620607,0.0,0.2094577538616514,0.009008623196763745,1.0061388860006806,0.005040398974409515
0.082,0.016895985642521857,0.0,0.24243166870721977,0.00868238624475299,1.00909144466657,0.0050363689915830226
0.083,0.016940196168837646,0.0,0.2438339062703564,0.008367976713572754,1.0123030268556044,0.0050327784060598575
0.084,0.016984406695153435,0.0,0.24378188299330245,0.00806496579038451,1.0155260838773497,0.005029543937424146
0.085,0.017028617221469224,0.0,0.24366610898476376,0.007772941319482889,1.018749643408181,0.00502662884161816
0.08600000000000001,0.017072827747785017,0.0,0.24354626905113003,0.007491501263150323,1.0219732352121311,0.005024001481949857
0.08700000000000001,0.017117038274100806,0.0,0.2434224821013545,0.0072202666322345056,1.0251968583752855,0.00502163349568823
0.088,0.017161248800416595,0.0,0.24329498277539977,0.006958948535319645,1.0284205110706706,0.005019499996573105
0.089,0.017205459326732384,0.0,0.24316278859856277,0.006707049781895957,1.0316442010736029,0.005017576580944608
0.09,0.017249669853048172,0.0,0.24302546701038188,0.006464218892261687,1.0348679318285423,0.005015842489836504
0.091,0.01729388037936396,0.0,0.2428826703754699,0.006230166383405975,1.038091706114593,0.0050142793847984994
0.092,0.01733809090567975,0.0,0.24273405165229572,0.006004602772317961,1.0413155267108587,0.005012870603948812
0.093,0.01738230143199554,0.0,0.2425792644343676,0.005787238575986786,1.0445393963964442,0.005011601022863924
0.094,0.017426511958311332,0.0,0.24241796299420726,0.005577784311401589,1.0477633179504535,0.005010456925363998
0.095,0.01747072248462712,0.0,0.2422498023293952,0.005375950495551512,1.0509872941519909,0.005009425883671821
0.096,0.01751493301094291,0.0,0.2420744382117102,0.005181447645425694,1.0542113277801606,0.005008496647435483
0.097,0.0175591435372587,0.0,0.24189152723848442,0.004993986278013278,1.0574354216140667,0.005007659041118245
0.098,0.017603354063574488,0.0,0.24170103646113733,0.004813360683889869,1.0606595759827737,0.005006904253761159
0.099,0.01764756458989028,0.0,0.24150275165678411,0.004639232651169114,1.0638837926539615,0.005006223698774586
0.1,0.01769177511620607,0.0,0.24129648977814716,0.0044713761853951055,1.0671080731542648,0.005005610116384058
0.101,0.017735985642521858,0.0,0.24108211923666462,0.004309590339424072,1.0703324186083005,0.005005057016683642
0.10200000000000001,0.017780196168837647,0.0,0.2408595091092246,0.00415367416611224,1.0735568301406864,0.0050045585036461145
0.10300000000000001,0.017824406695153436,0.0,0.2406285291627397,0.004003426718315838,1.0767813088760392,0.005004109225769328
0.10400000000000001,0.017868617221469225,0.0,0.2403890498787079,0.0038586470488910954,1.0800058559389765,0.005003704330243468
0.105,0.017912827747785014,0.0,0.2401409424784945,0.0037191342106942405,1.0832304724541155,0.005003339420452303
0.106,0.017957038274100806,0.0,0.23988407894890426,0.0035846872565814974,1.0864551595460734,0.0050030105166260636
0.107,0.018001248800416595,0.0,0.23961833206809152,0.0034551052394090967,1.0896799183394676,0.005002714019468477
0.108,0.018045459326732384,0.0,0.23934785944326856,0.0033302994085738225,1.0929047158879321,0.005002446940038087
0.109,0.018089669853048173,0.0,0.2390608562115372,0.003209952838545656,1.0961296461966814,0.00500220603664802
0.11,0.018133880379363962,0.0,0.23877286082334392,0.003093919929455603,1.099354585776529,0.005001988777848644
0.111,0.01817809090567975,0.0,0.23850058421539244,0.002982067947714074,1.10257940150363,0.005001792888691788
0.112,0.01822230143199554,0.0,0.23826070020057577,0.002874264159731478,1.1058039602541394,0.005001616300322834
0.113,0.018266511958311332,0.0,0.23806985383994297,0.0027703758319182255,1.1090281289042117,0.0050014571330586075
0.114,0.01831072248462712,0.0,0.2379446756677134,0.0026702702306847263,1.1122517743300022,0.005001313680656268
0.115,0.01835493301094291,0.0,0.2379018017699879,0.0025738146224413895,1.1154747634076656,0.005001184395710083
0.116,0.0183991435372587,0.0,0.2379578997158726,0.002480876273598625,1.1186969630133567,0.005001067876114727
0.117,0.018443354063574488,0.0,0.23812970034209396,0.002391322450566843,1.1219182400232308,0.0050009628525355156
0.11800000000000001,0.01848756458989028,0.0,0.23843403539086705,0.002305020419756453,1.1251384613134425,0.005000868176827845
0.11900000000000001,0.018531775116206066,0.0,0.23888788100041383,0.002221837447577865,1.1283574937601466,0.0050007828113500215
0.12,0.01857598564252186,0.0,0.23944167296260116,0.0021417066231256597,1.1315757348361468,0.00500070589018795
0.121,0.018620196168837647,0.0,0.2400759122012485,0.0020644560138026852,1.1347933421228664,0.005000636516148581
0.122,0.018664406695153436,0.0,0.2408089294462802,0.0019899671194209593,1.138010172785265,0.005000573935358528
0.123,0.018708617221469225,0.0,0.24164108116746522,0.0019181562950924991,1.1412262275444438,0.005000517497304354
0.124,0.018752827747785014,0.0,0.24257278289378847,0.001848939895929322,1.1444415071215046,0.005000466609954072
0.125,0.018797038274100807,0.0,0.24360450902885772,0.001782234277043445,1.1476560122375488,0.00500042073501543
0.126,0.018841248800416592,0.0,0.2447367926661947,0.0017179557935468855,1.1508697436136777,0.005000379383519929
0.127,0.018885459326732384,0.0,0.24597022540509816,0.0016560208005516608,1.154082701970993,0.005000342111716307
0.128,0.018929669853048173,0.0,0.24730545716616514,0.0015963456531697877,1.157294888030596,0.005000308517257574
0.129,0.018973880379363962,0.0,0.24874319600756237,0.0015388467065132836,1.1605063025135882,0.005000278235665997
0.13,0.01901809090567975,0.0,0.25028420794101974,0.001483440315694166,1.163716946141071,0.005000250937060841
0.131,0.01906230143199554,0.0,0.2519293167480898,0.001430042835824452,1.1669268196341462,0.005000226323134039
0.132,0.019106511958311333,0.0,0.253679403797004,0.0013785706220161586,1.1701359237139148,0.005000204124359424
0.133,0.01915072248462712,0.0,0.2555287852788764,0.0013289933646213378,1.1733443100757917,0.005000184121109892
0.134,0.01919493301094291,0.0,0.2574797095808808,0.0012811843052544518,1.1765519692556101,0.005000166071442184
0.135,0.0192391435372587,0.0,0.2595321527175462,0.001235089260058546,1.179758909684249,0.005000149788461775
0.136,0.01928335406357449,0.0,0.26168601854650747,0.0011906554387988513,1.1829651406007373,0.005000135102589872
0.137,0.01932756458989028,0.0,0.2639412412033141,0.0011478300512405984,1.1861706712441038,0.005000121859560815
0.138,0.019371775116206066,0.0,0.26629778294997275,0.0011065603071490177,1.1893755108533772,0.005000109919171895
0.139,0.01941598564252186,0.0,0.26875563205288044,0.0010667934162893406,1.1925796686675867,0.005000099154119992
0.14,0.019460196168837648,0.0,0.27131480068754654,0.0010284765884267973,1.195783153925761,0.0050000894489206135
0.14100000000000001,0.019504406695153437,0.0,0.27397532287288073,0.0009915570333266185,1.198985975866929,0.005000080698905023
0.14200000000000002,0.019548617221469226,0.0,0.27673725243266634,0.0009559819607540354,1.2021881437301194,0.005000072809291247
0.14300000000000002,0.019592827747785015,0.0,0.2796006609857301,0.0009216985804742783,1.205389666754361,0.005000065694324849
0.14400000000000002,0.019637038274100807,0.0,0.28256563596410106,0.0008886541022525783,1.208590554178683,0.005000059276485469
0.145,0.019681248800416593,0.0,0.2856317769629739,0.0008568040941790624,1.2117908188945654,0.005000053487426013
0.146,0.019725459326732385,0.0,0.288798842704979,0.0008261039542905348,1.2149904726474414,0.00500004826516775
0.147,0.019769669853048174,0.0,0.2920669187822778,0.0007965137057519577,1.2181895248422787,0.005000043554399085
0.148,0.019813880379363963,0.0,0.29543597928828846,0.0007679962077850835,1.2213879857317005,0.005000039305413795
0.149,0.019858090905679752,0.0,0.29890600060409556,0.0007405143196116639,1.2245858655683302,0.005000035473089686
0.15,0.01990230143199554,0.0,0.30247695941360525,0.0007140309004534512,1.2277831746047914,0.005000032016502621
0.151,0.01994651195831133,0.0,0.306148830753564,0.0006885088095321977,1.230979923093707,0.005000028898568707
0.152,0.01999072248462712,0.0,0.309921560529066,0.0006639111285429821,1.2341761214664024,0.0050000260857410795
0.153,0.02003493301094291,0.0,0.313795033943694,0.0006402041280680766,1.23737178053359,0.005000023548044059
0.154,0.0200791435372587,0.0,0.31776930520530344,0.0006173563793412758,1.2405669098750225,0.00500002125857396
0.155,0.02012335406357449,0.0,0.3218443082450236,0.0005953373209385572,1.2437615198495189,0.005000019193026642
0.156,0.020167564589890278,1.0,0.3260398339363903,0.0036784267474389196,1.2469554854288005,0.005006613184347506
0.157,0.020211775116206067,1.0,0.34865109042189074,0.021611168030000308,1.250026638603276,0.006934508478654871
0.158,0.02025598564252186,1.0,0.496720780153953,0.039221138821888706,1.2523596972733095,0.018017790213042305
0.159,0.020300196168837645,1.0,0.9058403129731476,0.05651414863249852,1.2536604698658604,0.04594364582095264
0.16,0.020344406695153437,1.0,1.592700176953927,0.0734959024513596,1.254468707956987,0.0953289026944613
0.161,0.020388617221469226,1.0,2.506875160642058,0.09017200254376435,1.2551911649653018,0.16577482740580712
0.162,0.020432827747785015,1.0,3.6435924455980846,0.10654795036879891,1.2558807908298695,0.2517421081610602
0.163,0.020477038274100804,1.0,4.975667009099437,0.12262914826664711,1.2565992676712792,0.34484687358996174
0.164,0.020521248800416593,1.0,6.4131528963572,0.13842090157513595,1.2574733842681856,0.43699824820443645
0.165,0.020565459326732385,1.0,7.833070452124144,0.15392842013850647,1.2586234266991079,0.5223969368925925
0.166,0.020609669853048174,1.0,9.119224913140462,0.16915681921506595,1.2601259728291456,0.597952470755261
0.16666666666666666,0.020639143537258698,1.0,9.866735623275517,0.1791565039890845,1.2613302406481273,0.6423211807150103
