Time [s],Lmtc [m],STIM [ ],Fsee [N],Gamma [ ],Lcerel [ ],q [ ]
0.0,0.0181391435372587,1.0,12.415932969900293,0.27988405267238753,1.0761207904378995,0.7683704931359617
0.001,0.0180591435372587,1.0,8.17215432829996,0.2928453829306732,1.0754636247860132,0.7926424834324259
0.002,0.0179791435372587,1.0,5.796016572463652,0.3055734228902518,1.0731433394222947,0.8125631012766398
0.003,0.0178991435372587,1.0,4.512863609629882,0.3180723715269811,1.0695152180447318,0.8290637297943434
0.004,0.0178191435372587,1.0,3.8238355966882502,0.3303463522008762,1.064997997864679,0.8429387239363851
0.005,0.017739143537258698,1.0,3.4533793265950714,0.34239941414901975,1.0599224285837625,0.8547796923647526
0.006,0.017659143537258698,1.0,3.256390860366466,0.3542355336511388,1.0545094721770822,0.8650088137999206
0.007,0.017579143537258698,1.0,3.155764684091912,0.36585861551461774,1.0488966830445452,0.8739300939787031
0.008,0.017499143537258698,1.0,3.1094493097439466,0.3772724938585007,1.0431670438430514,0.8817687030187382
0.009000000000000001,0.0174191435372587,0.0,3.077213759941247,0.36376780022620114,1.0374069004695896,0.8661631025849571
0.01,0.0173391435372587,0.0,3.036643121953224,0.35058007875688735,1.031665729448386,0.848668643508976
0.011,0.0172591435372587,0.0,2.9879960078069363,0.33787059736630526,1.0259433306941723,0.8293524195730514
0.012,0.0171791435372587,0.0,2.9313612236043998,0.325621629988261,1.0202399633700936,0.808143927821932
0.013000000000000001,0.0170991435372587,0.0,2.866635291034353,0.3138168225168411,1.0145564203144533,0.785001913703389
0.014,0.0170191435372587,0.0,2.793738927242204,0.3024401155685281,1.0088935623837763,0.7599197611218006
0.015,0.0169391435372587,0.0,2.7126423024371387,0.2914758400086861,1.0032522763368332,0.732931917573838
0.016,0.0168591435372587,0.0,2.6234016807096823,0.2809088972389245,0.9976334034213118,0.7041195295010755
0.017,0.0167791435372587,0.0,2.526071204188613,0.2707251905956379,0.9920379667749281,0.6736155081480472
0.018000000000000002,0.0166991435372587,0.0,2.4208432102402013,0.26091079340127393,0.9864668559454141,0.6416037534480465
0.019,0.0166191435372587,0.0,2.308088250363273,0.2514519725555469,0.9809207289827592,0.6083170692186349
0.02,0.0165391435372587,0.0,2.188720669621662,0.2423360765086446,0.975399038783865,0.5740337536355591
0.021,0.0164591435372587,0.0,2.0638265105765683,0.23355082723320802,0.969900875245716,0.5390684882126401
0.022,0.016379143537258698,0.0,1.9345517976355433,0.22508403509594327,0.9644252058199804,0.5037606369911573
0.023,0.016299143537258698,0.0,1.8023276942484077,0.2169241781538436,0.9589701807227786,0.46846248707625665
0.024,0.016219143537258698,0.0,1.668618209753935,0.20906015077279239,0.9535337092809504,0.43352523404540244
0.025,0.016139143537258697,0.0,1.5348427990007223,0.20148122744705066,0.9481136137459174,0.3992852874768743
0.026000000000000002,0.01615326118431752,0.0,3.3251650548065794,0.19417707014071262,0.9445933643340759,0.3679576175358452
0.027,0.016167378831376346,0.0,4.478609561539647,0.18713771844688742,0.943344191290837,0.33995125010431676
0.028,0.016181496478435167,0.0,5.142519085854318,0.18035357239023878,0.9431948066888534,0.3140800893106473
0.029,0.01619561412549399,0.0,5.486948200404757,0.17381537886147158,0.9436425033269626,0.28987882501795986
0.03,0.016209731772552815,0.0,5.405926585369645,0.1675142218486188,0.9448066649952355,0.2674562672262006
0.031,0.01622384941961164,0.0,5.067465045381114,0.1614415072556101,0.9464112971898186,0.24655255163008263
0.032,0.016237967066670463,0.0,4.686105286908861,0.15558895423866229,0.9481124222204653,0.22688266500872856
0.033,0.016252084713729287,0.0,4.320151107260111,0.1499485795709155,0.9498126320252395,0.20838154542585915
0.034,0.016266202360788108,0.0,3.9777642823672132,0.14451269188738677,0.9514958770467896,0.19104063290870502
0.035,0.016280320007846932,0.0,3.6596812752389134,0.1392738770977206,0.9531584224957247,0.17484824786932182
0.036000000000000004,0.016294437654905757,0.0,3.365245697630877,0.13422502556470706,0.954798904876029,0.1597830122747404
0.037,0.01630855530196458,0.0,3.0932267149804775,0.12935912446432812,0.9564170902799446,0.14581392265867016
0.038,0.016322672949023405,0.0,2.841988637263813,0.12466969188257994,0.9580137500518019,0.13290328150972655
0.039,0.016336790596082226,0.0,2.609971406218233,0.12015029013710736,0.9595897259394627,0.12100637734790372
0.04,0.01635090824314105,0.0,2.395526699632442,0.11579470654504898,0.9611463439667022,0.11007393439672257
0.041,0.016365025890199874,0.0,2.197226725453366,0.11159704492353881,0.962684695929069,0.10005351946672918
0.042,0.016379143537258698,0.0,2.0138769409900177,0.10755154761388286,0.9642055298597779,0.09089042562697254
0.043000000000000003,0.016393261184317522,0.0,1.8445140435157994,0.10365273281474184,0.9657091601759145,0.0825292136844359
0.044,0.016407378831376343,0.0,1.6883060134844565,0.09989525422024573,0.9671956560856653,0.07491445960596252
0.045,0.016421496478435167,0.0,1.5445375575455422,0.09627400637542251,0.9686648257645368,0.06799180926289332
0.046,0.01643561412549399,0.0,1.4125269209634335,0.09278404386133646,0.9701164277403764,0.06170849218344188
0.047,0.016449731772552816,0.0,1.29160770573577,0.08942059934538593,0.9715502255581223,0.056013844919026355
0.048,0.01646384941961164,0.0,1.1811127327549935,0.08617921812344208,0.9729660517528831,0.05085987358475786
0.049,0.016477967066670464,0.0,1.0803892062944302,0.08305522354120937,0.9743637720407877,0.0462005794270296
0.05,0.016492084713729285,0.0,0.9887456241399866,0.08004435549304244,0.9757435044737683,0.04199323088691268
0.051000000000000004,0.01650620236078811,0.0,0.9055082542106955,0.07714270674700313,0.9771054484663123,0.03819816517478502
0.052000000000000005,0.016520320007846933,0.0,0.830043721806717,0.0743463700711533,0.9784498034329069,0.034778252185656375
0.053,0.016534437654905757,0.0,0.7617578445996136,0.07165143823355483,0.9797767687880394,0.031698926008835615
0.054,0.01654855530196458,0.0,0.7000398861371484,0.06905420660985626,0.9810867978252605,0.028928412715844093
0.055,0.016562672949023402,0.0,0.6443116223108469,0.06655100479543656,0.9823804080488949,0.0264373992779166
0.056,0.016576790596082226,0.0,0.5940441692169788,0.06413857471648937,0.9836580968995423,0.02419929338432781
0.057,0.01659090824314105,0.0,0.5487494148003595,0.061813674146992,0.9849203681927536,0.022189651606006597
0.058,0.016605025890199875,0.0,0.5079778476926624,0.059573095253255694,0.9861677311693995,0.020386095813052046
0.059000000000000004,0.0166191435372587,0.0,0.47129923976975474,0.05741371237662839,0.9874007967110683,0.01876824000923341
0.06,0.01663326118431752,0.0,0.4383216703142009,0.055332523470719486,0.9886201698125057,0.01731757712757579
0.061,0.016647378831376344,0.0,0.4086897832377778,0.0533268200973272,0.9898264419585214,0.01601744684521151
0.062,0.016661496478435168,0.0,0.3820795978681785,0.05139389381824978,0.9910202046339249,0.014852679806175344
0.063,0.016675614125493992,0.0,0.35819609677557646,0.04953107493434985,0.9922020487425772,0.01380951839206614
0.064,0.016689731772552816,0.0,0.3367663419693689,0.04773575341174905,0.9933725946730485,0.012875520627367175
0.065,0.01670384941961164,0.0,0.31754462794875,0.04600543386366959,0.9945324454516431,0.012039476738101558
0.066,0.01671796706667046,0.0,0.30031089983986486,0.04433787248957383,0.9956821795314531,0.011291358811592832
0.067,0.016732084713729285,0.0,0.28486486152670154,0.04273082548892414,0.996822375365571,0.010622089787939971
0.068,0.01674620236078811,0.0,0.2710242206470997,0.04118205521128032,0.9979536104913737,0.010023469787547281
0.069,0.016760320007846934,0.0,0.25862533253110526,0.03968945690210919,0.9990764429760819,0.009488148163569844
0.07,0.016774437654905758,0.0,0.24751877069481254,0.03825085938542323,1.0001914309612063,0.009009471752900261
0.07100000000000001,0.01678855530196458,0.0,0.2375745931700314,0.03686442033649633,1.0012990786781186,0.008581552779777884
0.07200000000000001,0.016802672949023403,0.0,0.22867368307145053,0.03552829743060239,1.0023998903581903,0.008199079416989866
0.073,0.016816790596082227,0.0,0.22070656816936401,0.034240648343015295,1.0034943702327932,0.007857265963424934
0.074,0.01683090824314105,0.0,0.21357574255000192,0.032999727646663486,1.0045829937553845,0.007551829887112315
0.075,0.016845025890199875,0.0,0.20719261655317298,0.03180370133015937,1.0056662228171578,0.007278897646596561
0.076,0.016859143537258696,0.0,0.20148149953624356,0.030650977671097812,1.0067444626197002,0.007035043025262906
0.077,0.01687326118431752,0.0,0.19637459772057766,0.02954007038567161,1.00781809500997,0.006817204818460697
0.078,0.016887378831376344,0.0,0.1918085891599893,0.02846949319007356,1.008887501834926,0.006622628769105141
0.079,0.01690149647843517,0.0,0.1877240667569995,0.02743775980049646,1.0099530649415267,0.006448839532160144
0.08,0.016915614125493993,0.0,0.18406885032645562,0.026443466556765684,1.0110151315251013,0.0062936275129366675
0.081,0.016929731772552817,0.0,0.18079814938308483,0.02548514759414409,1.0120740068601815,0.006154999373933219
0.082,0.016943849419611638,0.0,0.17787271203041777,0.02456150431859108,1.0131299661414666,0.006031191092505068
0.083,0.01695796706667046,0.0,0.17525835167541615,0.02367135806017905,1.0141832549148115,0.005920633895730207
0.084,0.016972084713729286,0.0,0.17292241894149177,0.02281353014898041,1.0152341187260712,0.005821918030966952
0.085,0.01698620236078811,0.0,0.17083359505305754,0.021986841915067563,1.0162828031211002,0.0057337778795066765
0.08600000000000001,0.017000320007846934,0.0,0.1689622178034128,0.02119013052577913,1.0173295487929737,0.005655079841272171
0.08700000000000001,0.017014437654905755,0.0,0.16728776612979007,0.020422329565742088,1.018374518672412,0.005584816436233946
0.088,0.01702855530196458,0.0,0.16578811236442492,0.01968225866565843,1.019417897487559,0.005522074167715154
0.089,0.017042672949023403,0.0,0.16444677893803042,0.018968995793307002,1.0204598217065493,0.005466056243945899
0.09,0.017056790596082227,0.0,0.1632477432083977,0.01828161891646669,1.021500427797518,0.005416046832750065
0.091,0.01707090824314105,0.0,0.1621753749742733,0.017619206002916363,1.022539852228599,0.005371403419641901
0.092,0.017085025890199876,0.0,0.1612143801398623,0.016980835020434886,1.023578231467928,0.0053315498079262195
0.093,0.017099143537258697,0.0,0.16035105318898082,0.016365634559130506,1.0246156893263003,0.00529597263005833
0.094,0.01711326118431752,0.0,0.1595766644669115,0.01577273147540762,1.0256523033811575,0.005264211587205558
0.095,0.017127378831376345,0.0,0.15888104145118387,0.015201223587754931,1.0266881667807208,0.005235853049822863
0.096,0.01714149647843517,0.0,0.15825696258314068,0.01465040803203595,1.0277233452213037,0.005210536314161343
0.097,0.017155614125493993,0.0,0.1576973088298126,0.014119581944114194,1.0287579043992197,0.005187937389050038
0.098,0.017169731772552814,0.0,0.15719504953448676,0.01360804245985318,1.0297919100107817,0.0051677655124348285
0.099,0.017183849419611638,0.0,0.15674322969283566,0.013115086715116426,1.0308254277523035,0.005149759964963173
0.1,0.017197967066670462,0.0,0.1563349586542717,0.012640011845767444,1.0318585233200985,0.005133687159512935
0.101,0.017212084713729287,0.0,0.1559652797016068,0.012182186537318763,1.0328912438936944,0.005119340219841437
0.10200000000000001,0.01722620236078811,0.0,0.15563112249463515,0.011740910378704773,1.0339236184211043,0.005106531657106477
0.10300000000000001,0.017240320007846935,0.0,0.15532851973414866,0.011315573556230491,1.0349556849537416,0.005095096342258318
0.10400000000000001,0.017254437654905756,0.0,0.15505446644869697,0.010905647829593143,1.0359874722834725,0.0050848883688423925
0.105,0.01726855530196458,0.0,0.1548059762448419,0.010510604958489959,1.037019009202164,0.005075776740461459
0.106,0.017282672949023404,0.0,0.15458007878887692,0.01012991670261815,1.0380503245016828,0.005067643946227128
0.107,0.017296790596082228,0.0,0.154373817562732,0.009763054821674949,1.039081446973895,0.00506038465932362
0.108,0.01731090824314105,0.0,0.15418424789311772,0.00940949107535758,1.0401124054106679,0.005053904549660152
0.109,0.017325025890199873,0.0,0.15401007935722663,0.009068829629673989,1.0411432123033175,0.0050481214470267325
0.11,0.017339143537258697,0.0,0.15384937668893642,0.00874042775847232,1.0421738865919352,0.005042957567880499
0.111,0.01735326118431752,0.0,0.15370074378063248,0.008423862424870346,1.043204441924357,0.0050383469696249706
0.112,0.017367378831376346,0.0,0.1535630470157427,0.008118751783612224,1.044234889383604,0.005034231043429826
0.113,0.01738149647843517,0.0,0.15343515601509292,0.007824713989442105,1.0452652400526974,0.00503055714115805
0.114,0.01739561412549399,0.0,0.1533159432623015,0.007541367197104147,1.046295505014658,0.0050272780092092606
0.115,0.017409731772552815,0.0,0.1532042837697811,0.007268329561342499,1.0473256953525074,0.005024351270962576
0.116,0.01742384941961164,0.0,0.15309905478532193,0.007005219236901318,1.048355822149266,0.0050217389542697504
0.117,0.017437967066670463,0.0,0.15299913553906586,0.0067516543785247594,1.0493858964879552,0.005019407060647346
0.11800000000000001,0.017452084713729287,0.0,0.1529036564188867,0.00650729013806709,1.0504159269701046,0.005017325488063313
0.11900000000000001,0.017466202360788108,0.0,0.15281269636912018,0.006271797651740209,1.0514459127688722,0.0050154673917888245
0.12,0.017480320007846932,0.0,0.15272541878052376,0.006044768502694361,1.0524758621737498,0.005013808134042001
0.121,0.017494437654905756,0.0,0.15264143620647802,0.005825935234702297,1.0535057790120694,0.005012326718057229
0.122,0.01750855530196458,0.0,0.15256036173702764,0.005615030391536778,1.0545356671111636,0.005011004272651355
0.123,0.017522672949023405,0.0,0.15248180896012123,0.00541178651697056,1.0555655302983646,0.005009823851504911
0.124,0.01753679059608223,0.0,0.15240539192765104,0.0052159361547764035,1.056595372401005,0.0050087702495504784
0.125,0.01755090824314105,0.0,0.15233072512644508,0.005027211848727064,1.057625197246417,0.0050078298352273605
0.126,0.017565025890199874,0.0,0.1522574234540336,0.0048453461425953,1.0586550086619333,0.005006990397430954
0.127,0.017579143537258698,0.0,0.15218510219916484,0.004670071580153867,1.0596848104748862,0.005006241006052272
0.128,0.017593261184317522,0.0,0.1521136046385336,0.004501172750751056,1.0607146042419244,0.005005572091203987
0.129,0.017607378831376346,0.0,0.15204289137771534,0.00433837357018293,1.0617443903504706,0.005004974838299679
0.13,0.017621496478435167,0.0,0.15197272266921877,0.00418143336219427,1.062774171188045,0.005004441503268186
0.131,0.01763561412549399,0.0,0.1519029694010184,0.004030165255507875,1.0638039480399302,0.005003965328568602
0.132,0.017649731772552815,0.0,0.15183350258120593,0.003884382378846538,1.0648337221914088,0.005003540242183521
0.133,0.01766384941961164,0.0,0.1517641933366974,0.0037438978609330557,1.0658634949277632,0.005003160792687356
0.134,0.017677967066670464,0.0,0.15169491291228412,0.0036085248304902236,1.0668932675342762,0.005002822089873784
0.135,0.017692084713729288,0.0,0.15162553267031711,0.0034780764162408366,1.0679230412962302,0.005002519750536348
0.136,0.01770620236078811,0.0,0.15155592409095026,0.0033523657469076915,1.0689528174989078,0.0050022498490192024
0.137,0.017720320007846933,0.0,0.15148595877295412,0.003231205951213583,1.0699825974275914,0.005002008872177181
0.138,0.017734437654905757,0.0,0.15141562463547434,0.003114432923693163,1.0710123812056604,0.0050017937203587475
0.139,0.01774855530196458,0.0,0.15134489613338034,0.0030018808010648353,1.0720421690912856,0.005001601612876657
0.14,0.017762672949023405,0.0,0.15127370916272395,0.0028934055754173986,1.0730719617286297,0.0050014300949614435
0.14100000000000001,0.017776790596082226,0.0,0.15120200828685104,0.0027888665159509964,1.0741017596757563,0.005001276968966489
0.14200000000000002,0.01779090824314105,0.0,0.15112973812469244,0.0026881228918657716,1.075131563490728,0.00500114026381218
0.14300000000000002,0.017805025890199874,0.0,0.15105684335168018,0.002591033972361867,1.0761613737316074,0.00500101821304459
0.14400000000000002,0.0178191435372587,0.0,0.15098328125149116,0.002497462075069637,1.077191190830783,0.005000909238383734
0.145,0.017833261184317523,0.0,0.15090903808535572,0.0024072805670871324,1.0782210149308735,0.005000811938840892
0.146,0.017847378831376343,0.0,0.15083408263452408,0.002320369286548579,1.079250846349807,0.005000725065386318
0.147,0.017861496478435167,0.0,0.15075838398923658,0.002236609268965498,1.080280685402783,0.005000647499450214
0.148,0.01787561412549399,0.0,0.15068191921301818,0.002155885490554966,1.0813105323254544,0.005000578242263006
0.149,0.017889731772552816,1.0,0.15072598409374,0.0074377817095847894,1.0823391712571138,0.0050305690545405166
0.15,0.01790384941961164,1.0,0.16620950020033062,0.025302858553579683,1.0832168693126607,0.006541785860249001
0.151,0.01791796706667046,1.0,0.24859169565700362,0.04284638276900506,1.0835385760924523,0.013274751427190128
0.152,0.017932084713729285,1.0,0.3953647053452082,0.060074142025460256,1.083554546644309,0.029017740677524516
0.153,0.01794620236078811,1.0,0.6157691438019265,0.07699181962367288,1.0833702257394422,0.056586465846049844
0.154,0.017960320007846933,1.0,0.9702536022369405,0.09360499695770726,1.0828405847884024,0.09705600573821185
0.155,0.017974437654905757,1.0,1.5355535664985633,0.10991915447964404,1.081891857233162,0.14941314626600793
0.156,0.01798855530196458,1.0,2.310839713486791,0.12593967426477717,1.080734500721683,0.21100012632232862
0.157,0.018002672949023402,1.0,3.2173662966165844,0.14167184153891388,1.0796348293348068,0.2783085316972382
0.158,0.018016790596082227,1.0,4.196624303414374,0.15712084602200269,1.0786806193178433,0.347635104625635
0.159,0.01803090824314105,1.0,5.2166496976633585,0.17229178560950714,1.077877626799457,0.41571998566904794
0.16,0.018045025890199875,1.0,6.252959848609027,0.18718965464602394,1.0772212340693414,0.48014446884944206
0.161,0.0180591435372587,1.0,7.283454843107136,0.20181940179467747,1.076708006096689,0.5394082143039409
0.162,0.01807326118431752,1.0,8.290023924520437,0.2161858106645072,1.0763328516146062,0.5927985324622506
0.163,0.018087378831376344,1.0,9.257763358031237,0.23029363891027912,1.0760902620990447,0.6401858950295618
0.164,0.018101496478435168,1.0,10.176084128511933,0.24414754480833942,1.0759727788510438,0.6818168124130983
0.165,0.018115614125493992,1.0,11.043678285356407,0.25775209464428445,1.0759652883895041,0.7181432047753599
0.166,0.018129731772552816,1.0,11.885056267947668,0.27111177724932367,1.0760273474434274,0.7496923558346879
0.16666666666666666,0.0181391435372587,1.0,12.426880950916177,0.2798843739514859,1.076108704076996,0.7683617202513721
