Time [s],Lmtc [m],STIM [ ],Fsee [N],Gamma [ ],Lcerel [ ],q [ ]
0.0,0.017639753877878292,1.0,10.236946180936028,0.6592952316741054,0.828013785959929,0.9453800820456632
0.0005,0.01757975387787829,0.0,9.904524003158887,0.6472372959445846,0.8275541318416465,0.9421393364886121
0.001,0.017519753877878293,0.0,9.582070488694631,0.6353998925635805,0.82704037773962,0.938705185767864
0.0015,0.017459753877878292,0.0,9.26933101861482,0.6237789880924376,0.8264728946198331,0.9350670219430854
0.002,0.01739975387787829,0.0,8.966051027625234,0.6123706230052673,0.8258521169059252,0.9312138465772956
0.0025,0.01733975387787829,0.0,8.67197633943679,0.6011709098385458,0.8251785426564048,0.927134286831843
0.003,0.017279753877878293,0.0,8.386853540013687,0.590176033083071,0.8244527330468921,0.9228166177016922
0.0035,0.01721975387787829,0.0,8.110430314689285,0.5793822458105398,0.8236753120503909,0.9182487895572533
0.004,0.01715975387787829,0.0,7.842455794488733,0.568785870801594,0.8228469657428311,0.9134184643443662
0.0045000000000000005,0.017099753877878293,0.0,7.582680937250303,0.5583832969369323,0.8219684408504414,0.9083130575140291
0.005,0.017039753877878292,0.0,7.330858805838784,0.5481709802515726,0.8210405443597649,0.9029197907771378
0.0055,0.01697975387787829,0.0,7.086744993323866,0.5381454405334782,0.8200641408261553,0.8972257512623746
0.006,0.016919753877878294,0.0,6.8500957260617374,0.5283032979436468,0.8190401823607921,0.8912179972919828
0.006500000000000001,0.016859753877878293,0.0,6.620670566667924,0.5186412347108317,0.8179696747420564,0.8848836123842894
0.007,0.01679975387787829,0.0,6.398237577245012,0.5091559078158203,0.8168536034064614,0.8782097061046359
0.0075,0.01673975387787829,0.0,6.182571388647161,0.4998439795599044,0.8156929582076801,0.8711835256085488
0.008,0.016679753877878293,0.0,5.973442638636532,0.49070230959001315,0.8144888928198922,0.863792780913825
0.008333333333333333,0.01663975387787829,0.0,5.837541812012365,0.48470093599175795,0.8136626858570079,0.8586572431444138
0.008833333333333334,0.016642911772615135,0.0,5.932142286807585,0.4758361766499377,0.8124359095980674,0.8506590279186762
0.009333333333333334,0.016646069667351975,0.0,6.02409604583595,0.46713352440362893,0.8112609886332529,0.8423220076524252
0.009833333333333335,0.01664922756208882,0.0,6.113339673374756,0.4585902439054786,0.8101376980639039,0.8336427372653495
0.010333333333333335,0.01665238545682566,0.0,6.1998255404277876,0.4502035130104916,0.8090656257687112,0.8246185935804292
0.010833333333333335,0.016655543351562503,0.0,6.283515832457065,0.4419701913038932,0.8080442670518777,0.8152476119050418
0.011333333333333336,0.016658701246299343,0.0,6.364375829330363,0.4338871585205301,0.8070731259976515,0.8055289016105731
0.011833333333333336,0.016661859141036187,0.0,6.442353150413954,0.4259518750236821,0.8061520193633899,0.7954636125964479
0.012333333333333337,0.016665017035773028,0.0,6.517398931473731,0.41816178711922797,0.8052807563364257,0.7850542241441206
0.012833333333333337,0.01666817493050987,0.0,6.589474186563549,0.410514154611844,0.8044590456716857,0.7743042877611002
0.013333333333333338,0.016671332825246712,0.0,6.6585387111804994,0.4030063058381224,0.803686658477233,0.7632188841411212
0.013833333333333338,0.016674490719983556,0.0,6.724538309812282,0.39563583741663977,0.8029636099550383,0.7518051345063302
0.014333333333333339,0.016677648614720396,0.0,6.7874302530354065,0.3884002061388169,0.802289788086616,0.7400713902961255
0.014833333333333339,0.01668080650945724,0.0,6.847175892929507,0.3812968479739993,0.8016650618876591,0.7280274594675697
0.01533333333333334,0.01668396440419408,0.0,6.903730137176672,0.374323383355009,0.801089431186394,0.7156850733400769
0.015833333333333338,0.016687122298930924,0.0,6.957045788311223,0.36747752650461085,0.8005629623223174,0.7030577214872786
0.01633333333333334,0.016690280193667764,0.0,7.0070839219649494,0.3607568772038429,0.8000856404784146,0.6901601176919038
0.01683333333333334,0.016693438088404608,0.0,7.0538077984544545,0.35415905434402256,0.7996574568379419,0.6770084291113748
0.01733333333333334,0.01669659598314145,0.0,7.097178989431961,0.34768185960123427,0.7992784627760862,0.6636205918277777
0.01783333333333334,0.016699753877878292,0.0,7.137160682307494,0.3413230924027965,0.7989487227825733,0.650015849323708
0.01833333333333334,0.016702911772615132,0.0,7.173716451853115,0.3350805912482964,0.7986683315556489,0.6362147454250692
0.01883333333333334,0.016706069667351976,0.0,7.206809618657562,0.3289522614106711,0.798437422741666,0.6222390821777027
0.01933333333333334,0.016709227562088817,0.0,7.236405365600214,0.32293607145776876,0.7982561393744841,0.6081117620483484
0.01983333333333334,0.01671238545682566,0.0,7.262523796620192,0.3170299607245319,0.7981238985386989,0.5938556510300528
0.020333333333333342,0.0167155433515625,0.0,7.285182789032453,0.31123189797637413,0.7980401883914772,0.5794943534424023
0.020833333333333343,0.016718701246299345,0.0,7.304386850939163,0.30553987899927626,0.7980047203192647,0.5650522161188211
0.021333333333333343,0.016721859141036185,0.0,7.320446722138286,0.29995192285010586,0.7980130132428006,0.5505493872704958
0.021833333333333343,0.01672501703577303,0.0,7.334379414046452,0.2944661631491393,0.7980508926204223,0.5359958024595103
0.022333333333333344,0.01672817493050987,0.0,7.345864752276605,0.28908073543393575,0.7981226876110372,0.5214213794213184
0.022833333333333344,0.016731332825246713,0.0,7.3544115796927,0.2837938040325453,0.7982350850614417,0.506858687918742
0.023333333333333345,0.016734490719983553,0.0,7.35938762003538,0.2786035675150104,0.7983967216943508,0.4923422602984745
0.023833333333333345,0.016737648614720397,0.0,7.359970118105649,0.27350825715109806,0.7986188777511056,0.47790902740095653
0.024333333333333346,0.016740806509457237,0.0,7.355065902922749,0.2685061360576961,0.7989166050121644,0.4635991685013831
0.024833333333333346,0.01674396440419408,0.0,7.343275388669789,0.2635955002219342,0.7993092743539597,0.4494562507048527
0.025333333333333347,0.01674712229893092,0.0,7.322677994365629,0.2587746761524776,0.799823629274695,0.43552995489811763
0.025833333333333347,0.016750280193667765,0.0,7.290863173592317,0.25404202364499745,0.8004935346959821,0.42187508305103766
0.026333333333333347,0.016753438088404606,0.0,7.24481540543932,0.24939592853044848,0.801361863040413,0.4085527048956527
0.026833333333333348,0.01675659598314145,0.0,7.181472119430022,0.24483480770338878,0.8024732032638944,0.39562161210150676
0.02733333333333335,0.01675975387787829,0.0,7.097957933623667,0.24035710716870304,0.8038710998518824,0.3831349362881349
0.02783333333333335,0.016762911772615133,0.0,6.9937416927299525,0.23596130125383252,0.8055681362903053,0.37110955010956526
0.02833333333333335,0.016766069667351974,0.0,6.870837828511604,0.23164589216095377,0.8075423202694377,0.35952449041741735
0.02883333333333335,0.016769227562088818,0.0,6.7331328682260905,0.22740940936673076,0.8097451654499404,0.34833163732831235
0.02933333333333335,0.016772385456825658,0.0,6.585049310193088,0.2232504110372816,0.8121193326455728,0.33747524751235664
0.02983333333333335,0.0167755433515625,0.0,6.430534145421644,0.21916747807407116,0.8146124788664957,0.32690632956582033
0.03033333333333335,0.016778701246299346,0.0,6.272523804271143,0.21515921946089317,0.8171851120247475,0.3165900693007256
0.03083333333333335,0.016781859141036186,0.0,6.112956561313555,0.21122426958502555,0.8198109646872958,0.3065054368929462
0.03133333333333335,0.01678501703577303,0.0,5.953105378692202,0.20736128774137075,0.8224726418345931,0.2966403461491081
0.03183333333333335,0.01678817493050987,0.0,5.7938302568003195,0.20356895673092057,0.8251582475132108,0.28698802384696004
0.03233333333333335,0.016791332825246714,0.0,5.635718979827842,0.19984598527226044,0.8278595248198029,0.2775450002401061
0.03283333333333335,0.016794490719983554,0.0,5.479196870225521,0.19619110473668758,0.8305703493406289,0.26830954675507285
0.033333333333333354,0.016797648614720398,0.0,5.3245330030448645,0.19260306975707947,0.8332867764898876,0.25928156283375
0.033833333333333354,0.01680080650945724,0.0,5.171931623552372,0.18908053869152375,0.8360056967708362,0.25046093782016743
0.034333333333333355,0.016803964404194082,0.0,5.021532622065152,0.18562243703398967,0.8387248890286045,0.24184868254772507
0.034833333333333355,0.016807122298930922,0.0,4.873483787079292,0.18222758601739755,0.8414418644196067,0.23344480526198808
0.035333333333333355,0.016810280193667766,0.0,4.7279102410409415,0.17889487398128756,0.8441543712403375,0.22524927969095374
0.035833333333333356,0.016813438088404607,0.0,4.5849139865348105,0.17562311877561373,0.8468604217283795,0.2172616413600385
0.036333333333333356,0.01681659598314145,0.0,4.444568517272192,0.17241119700084426,0.8495584090323952,0.20948147009505624
0.03683333333333336,0.01681975387787829,0.0,4.306947254498188,0.16925802545964796,0.8522466264269539,0.2019079827090457
0.03733333333333336,0.016822911772615134,0.0,4.172111859616016,0.16616253521117602,0.8549234740150016,0.19454012599512246
0.03783333333333336,0.016826069667351975,0.0,4.040114924269339,0.16312365137918397,0.8575874185881824,0.18737650500065212
0.03833333333333336,0.01682922756208882,0.0,3.9109971379290736,0.160140342883196,0.8602370539127676,0.18041558575549518
0.03883333333333336,0.01683238545682566,0.0,3.7847883556859325,0.15721160639873444,0.8628710921627939,0.17365565063110447
0.03933333333333336,0.016835543351562503,0.0,3.661509148312927,0.15433644039784952,0.8654883450151575,0.16709472350335589
0.03983333333333336,0.016838701246299343,0.0,3.54117041153941,0.15151385182951801,0.8680877412765354,0.16073061445007394
0.04033333333333336,0.016841859141036187,0.0,3.4237729362057747,0.14874289329904558,0.8706683470111857,0.15456104577176294
0.04083333333333336,0.016845017035773027,0.0,3.3093097384235843,0.14602261849948706,0.8732293309012862,0.1485835168831643
0.04133333333333336,0.01684817493050987,0.0,3.1977666834735925,0.14335208198664856,0.8757699614292702,0.1427953179535375
0.04183333333333336,0.01685133282524671,0.0,3.0891229816117125,0.14073038920255795,0.8782896063052191,0.13719367610272837
0.04233333333333336,0.016854490719983555,0.0,2.98335285047143,0.13815663679914952,0.8807877064004515,0.13177559486716395
0.04283333333333336,0.016857648614720395,0.0,2.8804255098774703,0.1356299586253821,0.8832637834017076,0.12653799364521517
0.04333333333333336,0.01686080650945724,0.0,2.780308775933984,0.13314949462039008,0.8857173674709593,0.12147760699148752
0.04383333333333336,0.01686396440419408,0.0,2.6829671023758017,0.1307143831560681,0.8881480435523622,0.11659100761855004
0.04433333333333336,0.016867122298930923,0.0,2.5883630773666377,0.12832380970504623,0.8905554224621204,0.11187472885889643
0.044833333333333364,0.016870280193667764,0.0,2.4964593651828304,0.12597695965807984,0.8929390981480103,0.10732514655565606
0.045333333333333364,0.016873438088404608,0.0,2.4072174656499223,0.1236730254692443,0.8952986768017577,0.10293852932548443
0.045833333333333365,0.016876595983141448,0.0,2.3205983797578043,0.12141123072362738,0.8976337625194173,0.09871110487584855
0.046333333333333365,0.01687975387787829,0.0,2.2365635480069415,0.11919080480033563,0.8999439345207798,0.09463900861731195
0.046833333333333366,0.016882911772615132,0.0,2.1550740664901853,0.1170109923795502,0.9022287656613017,0.09071832928271596
0.047333333333333366,0.016886069667351976,0.0,2.0760907674693585,0.11487104896558874,0.904487820725051,0.08694511321762642
0.04783333333333337,0.016889227562088816,0.0,1.9995740306286385,0.11277024529958328,0.9067206616797078,0.08331538947748117
0.04833333333333337,0.01689238545682566,0.0,1.9254838556045268,0.11070786540652999,0.9089268465464463,0.07982517757590636
0.04883333333333337,0.0168955433515625,0.0,1.8537796511175695,0.10868320656300501,0.9111059359462922,0.07647050089699986
0.04933333333333337,0.016898701246299344,0.0,1.7844200738528453,0.10669557882325639,0.9132574990467246,0.0732473976828213
0.04983333333333337,0.016901859141036184,0.0,1.7173628942605879,0.1047443034590056,0.9153811194395175,0.07015192881294795
0.05033333333333337,0.016905017035773028,0.0,1.6525648399379582,0.10282871686283478,0.9174764023371184,0.06718019504515028
0.05083333333333337,0.01690817493050987,0.0,1.5899818896531945,0.10094816646813345,0.9195429692120164,0.06432833475626872
0.05133333333333337,0.016911332825246712,0.0,1.5295689321528265,0.09910200789803247,0.9215804709127043,0.0615925289100191
0.05183333333333337,0.016914490719983556,0.0,1.4712794886831262,0.09728961268175404,0.9235886002987617,0.05896902292795286
0.05233333333333337,0.016917648614720397,0.0,1.4150669319852762,0.09551036461487114,0.9255670592356889,0.05645411682385701
0.05283333333333337,0.01692080650945724,0.0,1.3608836763729901,0.09376365573666597,0.9275155864616829,0.054044169568781664
0.05333333333333337,0.01692396440419408,0.0,1.3086808767036509,0.09204886243689954,0.9294339720998489,0.05173556895533782
0.05383333333333337,0.016927122298930924,0.0,1.2584089067423503,0.09036544839719177,0.9313220477448116,0.04952489276864349
0.05433333333333337,0.016930280193667765,0.0,1.2100189072644165,0.08871283434294787,0.9331796387605679,0.04740869585313883
0.05483333333333337,0.01693343808840461,0.0,1.1634611530844916,0.08709044114252613,0.9350066208596052,0.045383596420917445
0.05533333333333337,0.01693659598314145,0.0,1.118684581570544,0.08549765568908965,0.9368029424212523,0.043446235779808044
0.055833333333333374,0.016939753877878293,0.0,1.0756386031353018,0.08393404816445944,0.938568566962117,0.04159357025254274
0.056333333333333374,0.016942911772615133,0.0,1.0342740300530104,0.08239903904999855,0.9403034407216385,0.0398223998598191
0.056833333333333375,0.016946069667351977,0.0,0.9945407669391678,0.08089206408622389,0.9420075776258509,0.03812962336273676
0.057333333333333375,0.016949227562088817,0.0,0.9563886496179462,0.07941267207297013,0.9436810341502583,0.03651235335270881
0.057833333333333375,0.01695238545682566,0.0,0.9197663426179461,0.07796022853553888,0.9453239564033383,0.034967549697430406
0.058333333333333376,0.0169555433515625,0.0,0.8846261264457131,0.07653445695219127,0.946936398532103,0.03349265748003042
0.058833333333333376,0.016958701246299345,0.0,0.8509194695256582,0.07513466224174437,0.9485184924011436,0.03208469695735397
0.05933333333333338,0.016961859141036185,0.0,0.8186001726945411,0.07376057262809274,0.950070325098267,0.030741239527197838
0.05983333333333338,0.01696501703577303,0.0,0.7876197361358156,0.07241151814160478,0.9515921290130553,0.029459492100743213
0.06033333333333338,0.01696817493050987,0.0,0.7579349126104945,0.07108736908335178,0.9530839713816658,0.028237289735432613
0.06083333333333338,0.016971332825246713,0.0,0.7294986162016193,0.06978757667757121,0.9545461349314083,0.02707209992837706
0.06133333333333338,0.016974490719983554,0.0,0.7022653807984447,0.06851151648864462,0.9559788948944149,0.02596139560956213
0.06183333333333338,0.016977648614720398,0.0,0.6761911865395764,0.06725867317212825,0.9573825248181995,0.02490283922538603
0.06233333333333338,0.016980806509457238,0.0,0.6512331977069672,0.0660287451233276,0.9587573072045441,0.023894360992187863
0.06283333333333338,0.01698396440419408,0.0,0.6273500500305467,0.06482130915321849,0.9601035194616587,0.022933835210392908
0.06333333333333338,0.016987122298930922,0.0,0.604500402322186,0.06363595200246848,0.9614215016293658,0.022019214516045094
0.06383333333333338,0.016990280193667766,0.0,0.582642592883858,0.062472281016958606,0.9627116776328087,0.021148537751659698
0.06433333333333338,0.016993438088404606,0.0,0.5617375741446154,0.06132988969557858,0.9639744150250238,0.02031988949754178
0.06483333333333338,0.01699659598314145,0.0,0.5417480876120113,0.06020838982988424,0.9652100595856999,0.019531429678230586
0.06533333333333338,0.01699975387787829,0.0,0.5226384799226877,0.0591074073060417,0.9664189410005856,0.018781388662254823
0.06583333333333338,0.017002911772615134,0.0,0.5043740479673556,0.05802655474188603,0.9676014041141044,0.01806804779879216
0.06633333333333338,0.017006069667351974,0.0,0.4869185303388816,0.05696533218156514,0.9687579429046765,0.017389679330427385
0.06683333333333338,0.017009227562088818,0.0,0.47024240062233547,0.05592355127130699,0.9698887599874383,0.0167448160854154
0.06733333333333338,0.01701238545682566,0.0,0.45431206037733485,0.05490079617058756,0.9709943377962177,0.016131900568553466
0.06783333333333338,0.017015543351562502,0.0,0.4390978320124649,0.0538967787360268,0.9720750109121747,0.015549507150358039
0.06833333333333338,0.017018701246299343,0.0,0.4245682472000213,0.05291109660168945,0.9731312785339679,0.014996198022474573
0.06883333333333339,0.017021859141036186,0.0,0.41069581846281833,0.051943476408132405,0.974163480059709,0.01447065983830301
0.06933333333333339,0.017025017035773027,0.0,0.39745580116691004,0.0509937508383909,0.9751718526896237,0.013971680863415006
0.06983333333333339,0.01702817493050987,0.0,0.3848196156569658,0.050061524996016495,0.9761569175169323,0.013497975745706589
0.07033333333333339,0.01703133282524671,0.0,0.37276025069753355,0.04914641167606963,0.9771191704113735,0.013048315447172776
0.07083333333333339,0.017034490719983555,0.0,0.36125178260461055,0.0482480236736107,0.9780591072426857,0.012621522460526162
0.07133333333333339,0.017037648614720395,0.0,0.3502693351662775,0.04736597378370013,0.9789772238806076,0.012216469481531827
0.07183333333333339,0.01704080650945724,0.0,0.339789198560581,0.04649990085637772,0.9798740060606947,0.011832089904800924
0.07233333333333339,0.017043964404194083,0.0,0.32978988568397233,0.04564965485113303,0.9807498574066844,0.011467455679479582
0.07283333333333339,0.017047122298930923,0.0,0.3202501371421447,0.04481498004880481,0.9816052226464246,0.011121625392765969
0.07333333333333339,0.017050280193667767,0.0,0.31114932266420414,0.04399558166509514,0.9824405617022957,0.010793679113866292
0.07383333333333339,0.017053438088404607,0.0,0.3024676484286527,0.043191164915706085,0.9832563344966783,0.010482735770631932
0.07433333333333339,0.01705659598314145,0.0,0.2941861244494363,0.042401435016339716,0.9840530009519528,0.010187952068683859
0.07483333333333339,0.01705975387787829,0.0,0.2862869070076556,0.04162612376290372,0.9848309948555408,0.00990853081282727
0.07533333333333339,0.017062911772615135,0.0,0.27875357977719684,0.04086501378595263,0.9855907000117505,0.009643726439737077
0.07583333333333339,0.017066069667351975,0.0,0.2715697566935711,0.04011784211097484,0.9863325450660237,0.009392809118540391
0.07633333333333339,0.01706922756208882,0.0,0.26471968339786794,0.039384343482286956,0.9870569609067618,0.0091550803667255
0.07683333333333339,0.01707238545682566,0.0,0.25818824256488543,0.03866425264420556,0.987764378422366,0.0089298728635799
0.07733333333333339,0.017075543351562503,0.0,0.25196092998159597,0.037957304652134906,0.9884552283041753,0.008716549518895582
0.0778333333333334,0.017078701246299344,0.0,0.24602423005999333,0.03726328262240686,0.9891299107987099,0.00851451633100158
0.0783333333333334,0.017081859141036188,0.0,0.2403652052879396,0.03658197419137074,0.9897888232892261,0.008323206634504279
0.0788333333333334,0.017085017035773028,0.0,0.23497121191866288,0.03591313996628793,0.9904323802809073,0.008142071502096778
0.0793333333333334,0.01708817493050987,0.0,0.22983010972840812,0.035256540554419805,0.9910609962789363,0.007970587292557634
0.0798333333333334,0.017091332825246712,0.0,0.22493023952433328,0.03461193656302775,0.9916750857884962,0.007808254744158373
0.0803333333333334,0.017094490719983556,0.0,0.22026041820386216,0.033979093632599947,0.9922750619665606,0.0076545993185839194
0.0808333333333334,0.017097648614720396,0.0,0.2158100539101924,0.03335782365287202,0.9928613255816888,0.007509179866101308
0.0813333333333334,0.01710080650945724,0.0,0.21156890975852088,0.03274792166371903,0.9934342819158766,0.007371571336325419
0.0818333333333334,0.01710396440419408,0.0,0.2075271155953986,0.03214917457827268,0.9939943384279657,0.007241366713363499
