Time [s],Lmtc [m],STIM [ ],Fsee [N],Gamma [ ],Lcerel [ ],q [ ]
0.0,0.017639753877878292,1.0,10.459186172612407,0.6759010603507836,0.8254326232406741,0.948799710650515
0.0005,0.017584753877878292,0.0,10.150397665501249,0.6635394138673226,0.8250176240538354,0.9457602052820002
0.001,0.017529753877878293,0.0,9.850325240168573,0.6514038544169571,0.8245539407723514,0.9425396777016609
0.0015,0.017474753877878293,0.0,9.558749726142858,0.6394902469321713,0.8240419805411108,0.9391281941379954
0.002,0.01741975387787829,0.0,9.275452191356942,0.6277945322505405,0.8234822035042967,0.9355154430035363
0.0025,0.01736475387787829,0.0,9.000214190132695,0.6163127248081215,0.8228751228653126,0.9316907464848593
0.003,0.01730975387787829,0.0,8.73281802829304,0.6050409132591507,0.8222213045742983,0.927643077787721
0.0035,0.017254753877878292,0.0,8.473047027433285,0.5939752560054898,0.8215213668383128,0.9233610821164121
0.004,0.017199753877878293,0.0,8.220685744888327,0.583111983531164,0.8207759800079221,0.9188331061202908
0.0045000000000000005,0.017144753877878293,0.0,7.975520297834928,0.5724473934136458,0.8199858649242311,0.9140472309430738
0.005,0.017089753877878294,0.0,7.737338501500063,0.5619778527929055,0.8191517934636342,0.9089913161691885
0.0055,0.01703475387787829,0.0,7.5059302608917955,0.551699793410708,0.8182745855371265,0.9036530475013324
0.006,0.01697975387787829,0.0,7.281087840476424,0.5416097113395303,0.8173551073684134,0.8980199951064414
0.006500000000000001,0.01692475387787829,0.0,7.062606486052758,0.5317041599784792,0.8163942645415657,0.8920796750903283
0.007,0.016869753877878292,0.0,6.850283412431118,0.5219797650269633,0.8153930176249192,0.8858196420844915
0.0075,0.016814753877878293,0.0,6.643918383340773,0.5124332186346183,0.8143523760787968,0.8792275741070879
0.008,0.016759753877878293,0.0,6.4433138584934175,0.5030612790073573,0.8132733978452498,0.8722913729958242
0.0085,0.016704753877878294,0.0,6.2482754125446105,0.49386076689199665,0.8121571847384287,0.8649992714969355
0.009000000000000001,0.01664975387787829,0.0,6.058614727800371,0.48482853058801745,0.8110048382518813,0.8573399033846163
0.009090909090909092,0.01663975387787829,0.0,6.02465480107935,0.48320414307572074,0.8107921274074072,0.8559073035658049
0.009590909090909093,0.016642648614720396,0.0,6.114484715086069,0.47436680990041735,0.8096408592081675,0.8478239867238295
0.010090909090909093,0.0166455433515625,0.0,6.201693321555033,0.4656911062573621,0.8085388833391783,0.8394019496110416
0.010590909090909094,0.016648438088404608,0.0,6.28618733198931,0.45717407590058706,0.8074865535429281,0.8306381057524282
0.011090909090909094,0.016651332825246713,0.0,6.367948629011554,0.4488128187211929,0.8064831401775759,0.8215297751233505
0.011590909090909094,0.016654227562088817,0.0,6.446935284475426,0.4406044900176849,0.8055283208566095,0.8120756288939814
0.012090909090909095,0.01665712229893092,0.0,6.523105829231362,0.43254628516236193,0.8046218116420317,0.8022755533159224
0.012590909090909095,0.01666001703577303,0.0,6.596417888185352,0.424635458462626,0.8037633850146835,0.7921307670751738
0.013090909090909096,0.016662911772615134,0.0,6.666828520580469,0.4168693186374606,0.8029528627478588,0.7816438935555784
0.013590909090909096,0.01666580650945724,0.0,6.7342950362002005,0.40924521586166396,0.8021901023558413,0.7708190059722523
0.014090909090909097,0.016668701246299343,0.0,6.7987744278937114,0.40176055337724126,0.8014750039380673,0.7596617074179168
0.014590909090909097,0.016671595983141448,0.0,6.860223841002424,0.39441279401760565,0.8008075021800717,0.7481791858571927
0.015090909090909098,0.016674490719983556,0.0,6.91860140226937,0.38719941985286505,0.8001875536065717,0.736380179169202
0.015590909090909098,0.01667738545682566,0.0,6.973864752895088,0.38011796176625917,0.7996151567440738,0.7242750520220997
0.0160909090909091,0.016680280193667765,0.0,7.025970662261416,0.3731660070038349,0.7990903566808073,0.711875820962687
0.0165909090909091,0.01668317493050987,0.0,7.07487507227175,0.36634119863929593,0.7986132436342516,0.6991961468358368
0.0170909090909091,0.016686069667351977,0.0,7.120541135098336,0.3596411933014296,0.7981838397973341,0.6862511242601296
0.0175909090909091,0.01668896440419408,0.0,7.16293306211671,0.35306369370934243,0.7978021864276544,0.673057360943792
0.018090909090909102,0.016691859141036186,0.0,7.202011798733889,0.34660647109024173,0.7974684038546486,0.6596330186090125
0.018590909090909102,0.01669475387787829,0.0,7.237738440909955,0.34026734712588974,0.7971826431544645,0.6459976582080813
0.019090909090909103,0.016697648614720395,0.0,7.270074231113199,0.33404419395260376,0.7969450861499622,0.6321721428457465
0.019590909090909103,0.016700543351562503,0.0,7.29898593008079,0.3279349183882791,0.7967558711807486,0.6181784112204312
0.020090909090909104,0.016703438088404608,0.0,7.324453354524057,0.32193742642797185,0.7966149898592592,0.6040391455003784
0.020590909090909104,0.016706332825246712,0.0,7.346450333005715,0.31604965248920064,0.7965225510060042,0.589777951496814
0.021090909090909105,0.016709227562088817,0.0,7.364952667512487,0.3102695323971025,0.7964786702875903,0.5754190203458174
0.021590909090909105,0.01671212229893092,0.0,7.380254059539316,0.30459506889875543,0.796479125629962,0.5609824431235632
0.022090909090909105,0.01671501703577303,0.0,7.393469017863255,0.29902438886155336,0.7965084650654276,0.5464765942034645
0.022590909090909106,0.016717911772615134,0.0,7.404395309803936,0.29355559399912395,0.7965693878204394,0.5319293561554373
0.023090909090909106,0.016720806509457238,0.0,7.412590258238867,0.28818682018015296,0.7966678985230441,0.5173724447563202
0.023590909090909107,0.016723701246299343,0.0,7.417488698539468,0.2829162380407032,0.7968116875781154,0.5028394357768727
0.024090909090909107,0.01672659598314145,0.0,7.418356932541421,0.27774205127282053,0.7970107741011837,0.4883661706574599
0.024590909090909108,0.016729490719983555,0.0,7.4142392947790565,0.27266249650765517,0.7972782605682339,0.47399123776804475
0.025090909090909108,0.01673238545682566,0.0,7.403902392048697,0.26767584286332835,0.7976311383801138,0.45975643890169177
0.02559090909090911,0.016735280193667764,0.0,7.385676157182891,0.2627803917313831,0.7980925443287855,0.44570873304469083
0.02609090909090911,0.01673817493050987,0.0,7.357424535615076,0.2579744770217059,0.7986923000552971,0.43190017953008564
0.02659090909090911,0.016741069667351977,0.0,7.316441361971769,0.2532564596429914,0.7994685787036696,0.4183889407293715
0.02709090909090911,0.01674396440419408,0.0,7.259765015950873,0.24862473195577642,0.8004639288796072,0.4052342228246102
0.02759090909090911,0.016746859141036186,0.0,7.18425986221073,0.2440777159145268,0.8017246260819685,0.3924948861228364
0.02809090909090911,0.01674975387787829,0.0,7.088375809428924,0.2396138492827362,0.8032766209874022,0.38020413647837936
0.02859090909090911,0.016752648614720398,0.0,6.972979796482364,0.235231604772363,0.8051135869368541,0.36835860835632317
0.02909090909090911,0.016755543351562503,0.0,6.841006772932198,0.2309295561306444,0.8072007099583898,0.3569246717700663
0.029590909090909112,0.016758438088404607,0.0,6.696825018765609,0.22670617492208753,0.8094821978122819,0.34584756180064025
0.030090909090909113,0.01676133282524671,0.0,6.544532469471658,0.22256003694844861,0.8119045117840925,0.3350765417783395
0.030590909090909113,0.016764227562088816,0.0,6.387425290530028,0.2184897299361372,0.8144238676398114,0.3245720486896595
0.031090909090909113,0.016767122298930924,0.0,6.227923318898064,0.2144938666222394,0.8170076394828056,0.3143066408877342
0.031590909090909114,0.01677001703577303,0.0,6.0676002411633725,0.21057108523968898,0.8196344487541098,0.3042644286546026
0.032090909090909114,0.016772911772615133,0.0,5.907464425899152,0.206720049197848,0.8222905122524495,0.2944370030605894
0.032590909090909115,0.016775806509457238,0.0,5.748211373116386,0.2029394462997641,0.8249661895743998,0.2848198312518026
0.033090909090909115,0.016778701246299346,0.0,5.590323039208934,0.19922798815885814,0.8276546858390316,0.2754108336344428
0.033590909090909116,0.01678159598314145,0.0,5.434127315517083,0.19558441039149319,0.8303512928611548,0.26620953247073537
0.034090909090909116,0.016784490719983555,0.0,5.279864461842088,0.19200747148356445,0.8330524563738555,0.2572161198979885
0.03459090909090912,0.01678738545682566,0.0,5.127720396753583,0.18849594559005198,0.8357553100793944,0.24843098017972456
0.03509090909090912,0.016790280193667764,0.0,4.97784681425034,0.18504853903547733,0.8384573895718389,0.2398541666963404
0.03559090909090912,0.01679317493050987,0.0,4.8303541075860545,0.18166418402842086,0.8411567830176329,0.231486418726717
0.03609090909090912,0.016796069667351976,0.0,4.685361381707927,0.1783417272593505,0.8438513106552961,0.22332754373813135
0.03659090909090912,0.01679896440419408,0.0,4.542971606805036,0.1750800929307122,0.8465389399217359,0.21537727601775214
0.03709090909090912,0.016801859141036185,0.0,4.40326771301026,0.1718781036737516,0.8492178673945215,0.20763479826515674
0.03759090909090912,0.01680475387787829,0.0,4.2663105091964075,0.16873468219617777,0.8518865757195996,0.2000993988061101
0.03809090909090912,0.016807648614720398,0.0,4.1321599517398,0.16564876549367277,0.8545434668776543,0.19276995784669057
0.03859090909090912,0.016810543351562502,0.0,4.000866230406911,0.16261927941046667,0.8571870232354014,0.18564501009173617
0.03909090909090912,0.016813438088404607,0.0,3.8724666671699604,0.15964519712198955,0.8598158744027471,0.17872297550138752
0.03959090909090912,0.01681633282524671,0.0,3.746988469457312,0.15672551895422185,0.8624287577959153,0.17200208178837065
0.04009090909090912,0.01681922756208882,0.0,3.6244502064030475,0.15385924128121117,0.8650245001851189,0.165480277133209
0.04059090909090912,0.016822122298930924,0.0,3.504860015696549,0.15104538065379433,0.8676020625349932,0.15915534066615994
0.04109090909090912,0.016825017035773028,0.0,3.388215966346519,0.14828299363030928,0.8701605456042745,0.15302494882714338
0.04159090909090912,0.016827911772615133,0.0,3.2745095233733035,0.14557112701161362,0.8726991318805427,0.14708651561409083
0.04209090909090912,0.016830806509457237,0.0,3.163724499290836,0.14290884695092843,0.875217116018028,0.14133730509085676
0.042590909090909124,0.016833701246299345,0.0,3.05583745687042,0.14029525585867875,0.8777139073138053,0.13577448754887103
0.043090909090909124,0.01683659598314145,0.0,2.9508218101588066,0.13772947112197798,0.8801889517751651,0.13039505476594374
0.043590909090909125,0.016839490719983554,0.0,2.848646384241548,0.13521059898905022,0.8826417682696749,0.12519578951236976
0.044090909090909125,0.01684238545682566,0.0,2.7492764142687514,0.13273779687699935,0.885071933524361,0.12017343230341981
0.044590909090909125,0.016845280193667767,0.0,2.6526765254441695,0.13031022164605519,0.8874790198763212,0.1153245370420974
0.045090909090909126,0.01684817493050987,0.0,2.558808956319826,0.12792703473805717,0.8898626371800216,0.11064552388561179
0.045590909090909126,0.016851069667351976,0.0,2.46763496800779,0.12558743590343546,0.8922224035739141,0.10613276372352136
0.04609090909090913,0.01685396440419408,0.0,2.379116174599385,0.12329062849467975,0.894557914819685,0.10178249933554027
0.04659090909090913,0.016856859141036185,0.0,2.293213568572388,0.121035826970306,0.8968687670818796,0.09759089161639826
0.04709090909090913,0.016859753877878293,0.0,2.2098878181908765,0.11882226653510591,0.899154550381247,0.09355405486029351
0.04759090909090913,0.016862648614720397,0.0,2.129099783884839,0.11664919277409166,0.9014148357164624,0.08966804419332258
0.04809090909090913,0.0168655433515625,0.0,2.0508100449607034,0.11451586660616285,0.9036491865815672,0.08592888578646411
0.04859090909090913,0.016868438088404606,0.0,1.9749788652909457,0.11242155924337863,0.9058571602149668,0.0823325801382323
0.04909090909090913,0.016871332825246714,0.0,1.9015658034106442,0.11036555690378452,0.9080383186730305,0.07887512797146161
0.04959090909090913,0.01687422756208882,0.0,1.8305298661254252,0.10834715867982585,0.9101922262162542,0.07555253578799559
0.05009090909090913,0.016877122298930923,0.0,1.7618293091633583,0.1063656770071155,0.9123184563268771,0.07236082888691517
0.05059090909090913,0.016880017035773028,0.0,1.6954215495934362,0.10442043668584712,0.9144165963464113,0.06929605957912416
0.05109090909090913,0.016882911772615132,0.0,1.631263015268296,0.10251077247255787,0.9164862544757858,0.06635431257367509
0.05159090909090913,0.01688580650945724,0.0,1.5693089137064034,0.10063603491036491,0.918527069954358,0.06353172500723235
0.05209090909090913,0.016888701246299345,0.0,1.5095139661184074,0.09879558607169896,0.9205386950068277,0.06082447980830618
0.05259090909090913,0.01689159598314145,0.0,1.451831818865283,0.0969887966665318,0.9225208155322275,0.05822881156065541
0.05309090909090913,0.016894490719983554,0.0,1.3962147407886554,0.09521504015455041,0.9244731651510685,0.05574100499212935
0.05359090909090913,0.016897385456825658,0.0,1.342614776445103,0.09347371701155373,0.9263954938132796,0.053357431976002075
0.054090909090909134,0.016900280193667766,0.0,1.2909833088489608,0.09176424819809886,0.9282875847309322,0.05107454563867037
0.054590909090909134,0.01690317493050987,0.0,1.2412708521110203,0.0900860379265924,0.9301492655348279,0.0488888279938904
0.055090909090909135,0.016906069667351975,0.0,1.1934268438353808,0.08843852564368677,0.9319804205881305,0.04679687539722333
0.055590909090909135,0.01690896440419408,0.0,1.1474019579779648,0.08682112043143023,0.9337809166069626,0.04479528994133554
0.056090909090909136,0.016911859141036188,0.0,1.1031459809901751,0.08523330240089912,0.9355506769069215,0.04288084228684059
0.056590909090909136,0.016914753877878292,0.0,1.06060841049839,0.08367453355044954,0.9372896658354817,0.04105033931840776
0.05709090909090914,0.016917648614720397,0.0,1.0197377118002877,0.08214420394867868,0.9389979206631679,0.03930056600735324
0.05759090909090914,0.0169205433515625,0.0,0.9804840815548568,0.08064190520647449,0.9406754546823755,0.03762862967090249
0.05809090909090914,0.016923438088404606,0.0,0.9427986802525096,0.07916708829167458,0.9423222842095413,0.03603151422297465
0.05859090909090914,0.016926332825246714,0.0,0.9066317994827915,0.07771920258203927,0.9439385007381278,0.03450628272630858
0.05909090909090914,0.016929227562088818,0.0,0.8719350017235019,0.07629784921572987,0.9455241926580983,0.03305024392241664
0.05959090909090914,0.016932122298930923,0.0,0.8386561271865072,0.0749022942941182,0.9470796482460632,0.03166041158782482
0.06009090909090914,0.016935017035773027,0.0,0.8067500139533651,0.07353238116747546,0.9486049289244383,0.030334493072811018
0.06059090909090914,0.016937911772615135,0.0,0.7761689066490379,0.07218748963022192,0.9501002525522012,0.029069755398261607
0.06109090909090914,0.01694080650945724,0.0,0.7468675942756475,0.07086714400810831,0.9515657862189577,0.02786369368426146
0.06159090909090914,0.016943701246299344,0.0,0.7188028620806911,0.06957108783751549,0.9530016644644547,0.026714084447557487
0.06209090909090914,0.01694659598314145,0.0,0.6919269493757867,0.06829857406860863,0.9544082791879265,0.02561830753016528
0.06259090909090914,0.016949490719983553,0.0,0.6662013824621691,0.06704953930336044,0.9557856704231791,0.024574440986154748
0.06309090909090914,0.01695238545682566,0.0,0.6415829915338694,0.06582360942552619,0.9571341432124246,0.023580334438519736
0.06359090909090914,0.016955280193667766,0.0,0.6180282030585522,0.06462020078837051,0.9584540884226751,0.022633724434987533
0.06409090909090914,0.01695817493050987,0.0,0.5954956977070501,0.06343875332353092,0.9597458605838843,0.021732447512364746
0.06459090909090914,0.016961069667351975,0.0,0.5739455742227207,0.062278733080336206,0.9610098137870733,0.020874441297088014
0.06509090909090914,0.016963964404194082,0.0,0.5533393993865507,0.061139890210637114,0.9622462973486582,0.020057940080080112
0.06559090909090914,0.016966859141036187,0.0,0.5336400417783537,0.06002188574958406,0.9634556620827432,0.019281157625994118
0.06609090909090914,0.01696975387787829,0.0,0.514811651218579,0.05892432566443121,0.9646382597288998,0.018542323825265414
0.06659090909090915,0.016972648614720396,0.0,0.4968193492395989,0.05784682173906815,0.9657944576471248,0.017839734904789566
0.06709090909090915,0.0169755433515625,0.0,0.47962715364253317,0.056789033109673585,0.9669247503607785,0.01717178600316347
0.06759090909090915,0.01697843808840461,0.0,0.4632013507903578,0.05575060078604867,0.9680295837152966,0.016536911710586282
0.06809090909090915,0.016981332825246713,0.0,0.44750986458644165,0.05473115825414066,0.9691093833509976,0.01593359648480382
0.06859090909090915,0.016984227562088818,0.0,0.4325219479357797,0.053730345904820065,0.9701645682055239,0.015360384513331795
0.06909090909090915,0.016987122298930922,0.0,0.41820874234205085,0.05274784717680421,0.9711955154295515,0.014815898067157954
0.06959090909090915,0.016990017035773027,0.0,0.4045421529551622,0.0517833263048341,0.9722026208152446,0.014298799696995285
0.07009090909090915,0.016992911772615134,0.0,0.39149506387357635,0.05083644197518935,0.9731862855407127,0.013807800166681528
0.07059090909090915,0.01699580650945724,0.0,0.3790404642814096,0.04990681297212848,0.9741469676040192,0.01334164162667411
0.07109090909090915,0.016998701246299344,0.0,0.3671516955386056,0.048994051463050504,0.9750851690911614,0.01289911632318887
0.07159090909090915,0.017001595983141448,0.0,0.3558095550426367,0.04809808514001648,0.9760009923826798,0.012479210158371255
0.07209090909090915,0.017004490719983556,0.0,0.34498567947141895,0.04721842304092878,0.9768951634682096,0.012080759064391662
0.07259090909090915,0.01700738545682566,0.0,0.3346606457929299,0.046354911313437504,0.977767910121383,0.011702793818380963
0.07309090909090915,0.017010280193667765,0.0,0.3248100421391519,0.04550716334522036,0.9786198338779465,0.01134428608483465
0.07359090909090915,0.01701317493050987,0.0,0.3154134020610586,0.044674917282166285,0.9794513421605278,0.011004301583706999
0.07409090909090915,0.017016069667351974,0.0,0.3064548965205534,0.04385808319061358,0.9802625844977902,0.010682008371382501
0.07459090909090915,0.017018964404194082,0.0,0.29791326939465596,0.043056314332061134,0.9810541210615654,0.010376510187868823
0.07509090909090915,0.017021859141036186,0.0,0.2897683079571994,0.04226926338091072,0.9818265014659759,0.010086950745806244
0.07559090909090915,0.01702475387787829,0.0,0.2820006677194527,0.04149658398805639,0.9825802736262012,0.009812513292569998
0.07609090909090915,0.017027648614720396,0.0,0.27459180983141906,0.04073792980439218,0.98331598545742,0.009552418922207859
0.07659090909090915,0.017030543351562503,0.0,0.267525350018225,0.03999305043573384,0.9840340848380698,0.009305956300960285
0.07709090909090915,0.017033438088404608,0.0,0.26078717395430945,0.039261808150291844,0.9847349021916546,0.009072480092917782
0.07759090909090915,0.017036332825246712,0.0,0.2543620944583285,0.03854394940686343,0.9854188886775015,0.008851335017364823
0.07809090909090916,0.017039227562088817,0.0,0.2482355136339137,0.03783921876498685,0.986086497434988,0.008641894563757057
0.07859090909090916,0.01704212229893092,0.0,0.24239342368954664,0.03714736078420039,0.9867381816034925,0.008443560649605266
0.07909090909090916,0.01704501703577303,0.0,0.23682316791305644,0.0364681437278913,0.9873743338879097,0.008255768535332782
0.07959090909090916,0.017047911772615134,0.0,0.231513522217681,0.035801364174652364,0.9879952748017031,0.008077985953905402
0.08009090909090916,0.01705080650945724,0.0,0.22645276467679315,0.03514678980976595,0.9886013985236831,0.007909697789151418
0.08059090909090916,0.017053701246299343,0.0,0.22162962077549783,0.03450418782273841,0.9891931004966731,0.007750412767789714
0.08109090909090916,0.01705659598314145,0.0,0.21703325935890388,0.03387332540307603,0.9897707761634966,0.00759966270558458
0.08159090909090916,0.017059490719983555,0.0,0.2126532515238941,0.03325399065603898,0.9903348226650861,0.007457006590985558
