Time [s],Lmtc [m],STIM [ ],Fsee [N],Gamma [ ],Lcerel [ ],q [ ]
0.0,0.020139143537258698,0.0,10.315320009331947,0.20747396809082827,1.2243341589108867,0.7093032472987804
0.001,0.019659143537258696,0.0,0.0,0.19995254938683135,1.217931139474991,0.6783176029190418
0.002,0.0191791435372587,0.0,0.0,0.19270387224516275,1.2072053359440766,0.6413513179897133
0.003,0.018699143537258697,0.0,0.0,0.1857178928339098,1.1965150147342323,0.6026808052719291
0.004,0.018219143537258696,0.0,0.0,0.17898514606505417,1.185857182834062,0.5627408421200771
0.005,0.017739143537258698,0.0,0.0,0.1724966000838104,1.1752296161157436,0.5220304933151471
0.006,0.017259143537258697,0.0,0.0,0.16624327142196524,1.1646302042154515,0.48108714237376027
0.007,0.0167791435372587,0.0,0.0,0.16021663795567617,1.1540582203741478,0.4404618161116894
0.008,0.016299143537258698,0.0,0.0,0.15440848397642062,1.1435144388850915,0.40068939808551873
0.009000000000000001,0.015819143537258697,0.0,0.0,0.14881090911979122,1.1330048846733278,0.3622648846334345
0.01,0.015339143537258699,0.0,0.0,0.14341626697513704,1.1225429564119362,0.32562124822919736
0.011,0.014859143537258698,0.0,0.0,0.13821720227034026,1.1121584316047692,0.2911195305575304
0.012,0.014379143537258698,0.0,0.0,0.1332066250497799,1.1019073770356305,0.25904337025057556
0.013000000000000001,0.014151775116206067,0.0,0.0,0.12837770187187575,1.091885034524971,0.2295992881236394
0.014,0.014177038274100804,0.0,0.0,0.12372384764311686,1.0822334559369686,0.2029153761462847
0.015,0.01420230143199554,0.0,0.0,0.11923871324442384,1.0731241947616965,0.17902847826712986
0.016,0.014227564589890279,0.0,0.0,0.11491618404479799,1.0647218884828806,0.1578740987674249
0.017,0.014252827747785015,0.0,0.0,0.11075036406180822,1.0571429419358742,0.13929109404941054
0.018000000000000002,0.014278090905679752,0.0,0.0,0.10673557197591262,1.050429826035755,0.12304619410711741
0.019,0.014303354063574488,0.0,0.0,0.10286633305570743,1.0445540554562038,0.10887141695107312
0.02,0.014328617221469225,0.0,0.0,0.09913737115845739,1.0394390766645014,0.09649872281666452
0.021,0.014353880379363962,0.0,0.0,0.09554359566525003,1.0349854978536925,0.08568168114481726
0.022,0.0143791435372587,0.0,0.0,0.0920801119881586,1.0310914553446138,0.07620508076573053
0.023,0.014404406695153436,0.0,0.0,0.08874219376647892,1.0276629651109956,0.06788543789370385
0.024,0.014429669853048173,0.0,0.0,0.08552528839231689,1.024618663939179,0.06056790137220316
0.025,0.01445493301094291,0.0,0.0,0.08242500841109969,1.021890563314437,0.054121820924186784
0.026000000000000002,0.014480196168837646,0.0,0.0,0.07943712633814448,1.0194229433164068,0.04843645457366155
0.027,0.014505459326732383,0.0,0.0,0.07655756808700342,1.017170475600613,0.043417290230571975
0.028,0.01453072248462712,0.0,0.0,0.0737824043222837,1.0150963254342626,0.038983095042362165
0.029,0.014555985642521857,0.0,0.0,0.07110785357730373,1.0131708239249713,0.03506366095488583
0.03,0.014581248800416594,0.0,0.0,0.06853026378020236,1.0113696125678477,0.031597898472471804
0.031,0.01460651195831133,0.0,0.0,0.06604612721072153,1.009673114944111,0.028532508414625492
0.032,0.014631775116206067,0.0,0.0,0.06365204353369419,1.0080648605989855,0.025820708561602485
0.033,0.014657038274100805,0.0,0.0,0.0613447576277052,1.0065316630491503,0.023421451696345567
0.034,0.014682301431995542,0.0,0.0,0.05912112897899947,1.00506252407692,0.021298571889124894
0.035,0.014707564589890278,0.0,0.0,0.05697809881473888,1.0036478557695983,0.019420113952568305
0.036000000000000004,0.014732827747785015,0.0,0.0,0.05491277579676843,1.0022802962927626,0.01775795490140395
0.037,0.014758090905679751,0.0,0.0,0.05292233357623413,1.0009531938857583,0.01628717544984563
0.038,0.014783354063574488,0.0,0.0,0.05100402838245568,0.9996608160942693,0.014985728194793983
0.039,0.014808617221469226,0.0,0.0,0.049155291508319,0.9983988438191136,0.013834182372594052
0.04,0.014833880379363963,0.0,0.0,0.04737358637315775,0.9971631638627483,0.012815283850707428
0.041,0.0148591435372587,0.0,0.0,0.04565644731375927,0.9959501970952651,0.011913754499261478
0.042,0.014884406695153436,0.0,0.0,0.04400157619566714,0.994757231588075,0.01111612204624558
0.043000000000000003,0.014909669853048172,0.0,0.0,0.04240672463766113,0.9935817625921974,0.01041043585733608
0.044,0.01493493301094291,0.0,0.0,0.04086966001572788,0.9924214224064722,0.009786087751948499
0.045,0.014960196168837647,0.0,0.0,0.039388306717502625,0.9912743976364969,0.009233725393814975
0.046,0.014985459326732384,0.0,0.0,0.03796068771895046,0.9901391831323214,0.008745076494533831
0.047,0.01501072248462712,0.0,0.0,0.03658485581789007,0.9890143335860239,0.008312800713165707
0.048,0.015035985642521857,0.0,0.0,0.035258872719542964,0.9878984857595285,0.00793038399965887
0.049,0.015061248800416593,0.0,0.0,0.033980912631151876,0.9867905363085211,0.007592077437928727
0.05,0.015086511958311332,0.0,0.0,0.03274930839559028,0.9856896834722751,0.007292816692956699
0.051000000000000004,0.015111775116206068,0.0,0.0,0.03156239285573164,0.9845951254900647,0.007028101879418611
0.052000000000000005,0.015137038274100805,0.0,0.0,0.03041852459428877,0.9835060921777803,0.006793943384090968
0.053,0.015162301431995541,0.0,0.0,0.029316095544033298,0.982421895207985,0.006586807724347091
0.054,0.015187564589890278,0.0,0.0,0.028253592906598658,0.9813419780109269,0.0064035768549269905
0.055,0.015212827747785014,0.0,0.0,0.027229630695403673,0.9802659266239391,0.006241503187605925
0.056,0.015238090905679753,0.0,0.0,0.02624282292386715,0.9791933270843545,0.006098146312984668
0.057,0.01526335406357449,0.0,0.0,0.025291822881580963,0.9781237936834205,0.005971345391088565
0.058,0.015288617221469226,0.0,0.0,0.024375280769062778,0.9770569618502682,0.005859182908869222
0.059000000000000004,0.015313880379363962,0.0,0.0,0.023491888260999044,0.9759925079822848,0.005759963303315386
0.06,0.015339143537258699,0.0,0.0,0.022640523078782084,0.9749302357124291,0.00567220153623157
0.061,0.015364406695153435,0.0,0.0,0.021820062943804196,0.9738699486736603,0.005594578187566015
0.062,0.015389669853048174,0.0,0.0,0.021029385577457694,0.9728114504989372,0.005525921918920632
0.063,0.01541493301094291,0.0,0.0,0.020267375876046868,0.9717545477082071,0.0054651941837840735
0.064,0.015440196168837647,0.0,0.0,0.019533009914037426,0.9706990946769872,0.005411480495233367
0.065,0.015465459326732383,0.0,0.0,0.018825187156921965,0.9696449262275654,0.005363964578001702
0.066,0.01549072248462712,0.0,0.0,0.018143015519032305,0.9685919567863539,0.0053219355912507505
0.067,0.015515985642521858,0.0,0.0,0.017485602914700284,0.9675401007797653,0.005284761958892887
0.068,0.015541248800416595,0.0,0.0,0.01685205725825773,0.9664892726342121,0.005251882963631256
0.069,0.015566511958311331,0.0,0.0,0.01624148646403647,0.9654393867761067,0.0052228011684118236
0.07,0.015591775116206068,0.0,0.0,0.015653118842097642,0.9643903876248678,0.005197080469058855
0.07100000000000001,0.015617038274100804,0.0,0.0,0.01508598030909996,0.9633421831609449,0.005174325964231321
0.07200000000000001,0.01564230143199554,0.0,0.0,0.014539350632986609,0.9622947356239746,0.005154197411515977
0.073,0.015667564589890277,0.0,0.0,0.014012542227330956,0.9612480143792392,0.005136393571526517
0.074,0.015692827747785014,0.0,0.0,0.01350486750570634,0.9602019887920211,0.0051206468118033125
0.075,0.01571809090567975,0.0,0.0,0.01301563888168613,0.9591566282276024,0.00510671953739427
0.076,0.015743354063574487,0.0,0.0,0.012544168768843683,0.9581119020512656,0.005094400974394424
0.077,0.015768617221469227,0.0,0.0,0.012089795695317138,0.9570677826799661,0.005083504853433155
0.078,0.015793880379363964,0.0,0.0,0.011651901545856472,0.9560242517384824,0.005073866921420703
0.079,0.0158191435372587,0.0,0.0,0.011229806315296641,0.9549812854410368,0.005065340317169672
0.08,0.015844406695153437,0.0,0.0,0.010822991526715342,0.9539388772510684,0.005057797866684327
0.081,0.015869669853048173,0.0,0.0,0.010430938703190264,0.9528970206320165,0.005051126530535781
0.082,0.01589493301094291,0.0,0.0,0.010053129367799101,0.9518557090473205,0.005045225909434681
0.083,0.015920196168837646,0.0,0.0,0.009689045043619553,0.9508149359604193,0.0050400068968736705
0.084,0.015945459326732383,0.0,0.0,0.009338167253729306,0.9497746948347524,0.00503539046580669
0.085,0.01597072248462712,0.0,0.0,0.008999987620129095,0.9487349800358633,0.0050313066898717545
0.08600000000000001,0.015995985642521856,0.0,0.0,0.008674063752425104,0.9476957917239218,0.0050276942883471926
0.08700000000000001,0.016021248800416596,0.0,0.06999832542689241,0.008359955949598633,0.9471017633812663,0.0050245467309146235
0.088,0.016046511958311332,0.0,0.1720552203565323,0.008057235841572271,0.9477742758271659,0.0050218782724799835
0.089,0.01607177511620607,0.0,0.18568927993246911,0.007765490576516152,0.9494903358925382,0.005019589503907649
0.09,0.016097038274100806,0.0,0.186657333150332,0.007484322274220206,0.951323119041962,0.005017549253085936
0.091,0.016122301431995542,0.0,0.18675839896943972,0.00721334745879202,0.9531637216001236,0.00501572212237977
0.092,0.01614756458989028,0.0,0.18680189642072034,0.006952197012555111,0.9550048426156142,0.005014085339564521
0.093,0.016172827747785015,0.0,0.1868427736953236,0.006700513049924824,0.9568459872617998,0.005012619027850116
0.094,0.016198090905679752,0.0,0.18688357268941824,0.006457967984933612,0.9586871326527905,0.005011305513988291
0.095,0.01622335406357449,0.0,0.18692472975342303,0.0062242516579422815,0.9605282748614485,0.005010128977864195
0.096,0.016248617221469225,0.0,0.1869655672648627,0.005998948128733251,0.9623694199863484,0.005009074659659729
0.097,0.01627388037936396,0.0,0.18700586549048753,0.005781787507311495,0.9642105700035725,0.00500813002745618
0.098,0.016299143537258698,0.0,0.18704540460426308,0.0055724999036819885,0.9660517268892029,0.005007283776386853
0.099,0.016324406695153438,0.0,0.18708396469115188,0.005370815427849706,0.9678928926193224,0.005006525717414003
0.1,0.016349669853048174,0.0,0.18712132575225465,0.005176464189819623,0.9697340691700133,0.00500584667508236
0.101,0.01637493301094291,0.0,0.1871572677113404,0.004989176299596715,0.9715752585173578,0.0050052383936526655
0.10200000000000001,0.016400196168837648,0.0,0.1871915704224123,0.004808681867185955,0.9734164626374384,0.0050046934510466256
0.10300000000000001,0.016425459326732384,0.0,0.18722408917045522,0.00463477401578419,0.9752576828275011,0.005004205363028441
0.10400000000000001,0.01645072248462712,0.0,0.18725473002966866,0.004467169550461568,0.9770989199278897,0.005003768070672929
0.105,0.016475985642521857,0.0,0.18728332757675942,0.004305570254233501,0.978940175421738,0.005003376109989286
0.106,0.016501248800416594,0.0,0.18730980273743877,0.00414979103495958,0.980781450015722,0.005003024861719467
0.107,0.01652651195831133,0.0,0.18733407645051034,0.0039996468004994,0.9826227444165181,0.005002710154534715
0.108,0.016551775116206067,0.0,0.18735606967232593,0.003854952458712555,0.9844640593308024,0.005002428224963457
0.109,0.016577038274100803,0.0,0.18737570338157533,0.003715522917458639,0.9863053954652511,0.005002175680494455
0.11,0.016602301431995543,0.0,0.18739289858411443,0.0035811730845972467,0.9881467535265404,0.005001949465649281
0.111,0.01662756458989028,0.0,0.1874075763179159,0.0034517178679879714,0.9899881342213465,0.00500174683082747
0.112,0.016652827747785016,0.0,0.1874196576584805,0.003326972175490407,0.9918295382563453,0.005001565303736886
0.113,0.016678090905679753,0.0,0.18742906372397694,0.0032067509149641474,0.9936709663382134,0.005001402663230903
0.114,0.01670335406357449,0.0,0.18743572764090344,0.003090880320327674,0.9955124190661409,0.00500125693012267
0.115,0.016728617221469226,0.0,0.18743971423088643,0.002979247451623426,0.9973538958562596,0.005001126400042928
0.116,0.016753880379363963,0.0,0.18744092530080672,0.002871606981239088,0.9991953975902632,0.005001009381032409
0.117,0.0167791435372587,0.0,0.18743933428917875,0.0027678370703804046,1.001036924506619,0.005000904499587892
0.11800000000000001,0.016804406695153436,0.0,0.1874349146974482,0.002667815880253122,1.0028784768437942,0.005000810514977405
0.11900000000000001,0.016829669853048172,0.0,0.18742764009185803,0.0025714215720629863,1.0047200548402562,0.005000726307408884
0.12,0.01685493301094291,0.0,0.18741748410557268,0.002478532307015744,1.0065616587344723,0.00500065086713158
0.121,0.016880196168837645,0.0,0.18740442044072234,0.002389026246317138,1.00840328876491,0.005000583284410067
0.122,0.016905459326732382,0.0,0.1873884228703958,0.0023027815511729157,1.010244945170036,0.005000522740313465
0.123,0.016930722484627122,0.0,0.18736946524068018,0.0022196763827888226,1.0120866281883183,0.0050004684982651055
0.124,0.01695598564252186,0.0,0.18734752147281805,0.0021395889023706044,1.0139283380582238,0.005000419896300491
0.125,0.016981248800416595,0.0,0.1873225655653126,0.0020623972711240075,1.0157700750182197,0.005000376339984018
0.126,0.01700651195831133,0.0,0.18729462028422375,0.0019880640725346396,1.0176118388690414,0.0050003373417803814
0.127,0.017031775116206068,0.0,0.18726366947901665,0.0019163905907635236,1.019453629761921,0.005000302374995747
0.128,0.017057038274100805,0.0,0.18722969712863866,0.0018472721617789098,1.0212954478476255,0.005000271019109751
0.129,0.01708230143199554,0.0,0.1871926967281145,0.001780632824570775,1.0231372931920553,0.005000242908790193
0.13,0.017107564589890278,0.0,0.18715266184882726,0.0017163966181290974,1.0249791658611112,0.005000217713777155
0.131,0.017132827747785014,0.0,0.18710958613914033,0.001654487581443854,1.0268210659206942,0.005000195135786199
0.132,0.017158090905679754,0.0,0.18706346332509133,0.0015948297535050232,1.0286629934367049,0.005000174905652629
0.133,0.01718335406357449,0.0,0.18701428721074997,0.0015373471733025816,1.0305049484750441,0.005000156780701561
0.134,0.017208617221469227,0.0,0.18696205167909768,0.0014819638798265076,1.0323469311016127,0.005000140542329178
0.135,0.017233880379363964,0.0,0.1869067506924584,0.0014286039120667785,1.0341889413823115,0.005000125993781235
0.136,0.0172591435372587,0.0,0.18684837829315626,0.0013771913090133716,1.0360309793830411,0.005000112958115501
0.137,0.017284406695153437,0.0,0.18678692860413193,0.001327650109656265,1.0378730451697022,0.005000101276335491
0.138,0.017309669853048174,0.0,0.1867223958294066,0.0012799043529854361,1.039715138808196,0.005000090805683441
0.139,0.01733493301094291,0.0,0.18665477425492596,0.0012338780779908621,1.041557260364423,0.00500008141808115
0.14,0.017360196168837647,0.0,0.18658407196689725,0.0011895557579807176,1.0433994097807182,0.0050000730105781285
0.14100000000000001,0.017385459326732383,0.0,0.18651028409092726,0.001146812496319481,1.0452415871168343,0.005000065468885548
0.14200000000000002,0.01741072248462712,0.0,0.18643340757521176,0.0011055939619723362,1.0470837924168421,0.005000058704334808
0.14300000000000002,0.017435985642521856,0.0,0.18635344060784234,0.0010658546878695948,1.0489260257143713,0.005000052638386284
0.14400000000000002,0.017461248800416593,0.0,0.18627038145771743,0.001027549206941569,1.0507682870430513,0.005000047200036621
0.145,0.01748651195831133,0.0,0.18618422847490929,0.0009906320521185711,1.052610576436511,0.005000042325153184
0.146,0.017511775116206066,0.0,0.18609498009080733,0.0009550577563309119,1.0544528939283806,0.005000037955860361
0.147,0.017537038274100802,0.0,0.1860026348186405,0.0009207808525089037,1.056295239552289,0.005000034039974434
0.148,0.017562301431995542,0.0,0.1859071912536771,0.0008877558735828584,1.058137613341866,0.0050000305304838686
0.149,0.01758756458989028,0.0,0.1858086480734958,0.0008559373524830883,1.0599800153307408,0.005000027385072013
0.15,0.017612827747785016,0.0,0.1857070040383683,0.0008252798221399048,1.0618224455525431,0.005000024565679355
0.151,0.017638090905679752,0.0,0.1856022579916291,0.0007957378154836202,1.063664904040902,0.0050000220381025955
0.152,0.01766335406357449,0.0,0.18549440885986287,0.0007672658654445462,1.0655073908294472,0.005000019771627959
0.153,0.017688617221469225,0.0,0.18538345565328904,0.0007398185049529948,1.067349905951808,0.005000017738696282
0.154,0.01771388037936396,0.0,0.18526939389895733,0.0007134252118632886,1.0691924494738583,0.005000015919949213
0.155,0.017739143537258698,0.0,0.18515222891605915,0.0006879555310423781,1.0710350213737312,0.005000014286485035
0.156,0.017764406695153435,0.0,0.18503195981310713,0.0006633831684566608,1.0728776216864313,0.005000012819883879
0.157,0.017789669853048175,0.0,0.18490858571299312,0.0006396830771548902,1.074720250447602,0.00500001150352939
0.158,0.01781493301094291,0.0,0.18478210582379143,0.0006168302101858197,1.076562907692888,0.005000010322367825
0.159,0.017840196168837648,0.0,0.18465251943945696,0.0005947995205982029,1.0784055934579326,0.005000009262773619
0.16,0.017865459326732384,0.0,0.1845198259399795,0.0005735659614407934,1.0802483077783798,0.005000008312425056
0.161,0.01789072248462712,0.0,0.1843840247916913,0.0005531044857623446,1.0820910506898733,0.005000007460189437
0.162,0.017915985642521857,0.0,0.1842451155476597,0.0005333900466116102,1.0839338222280572,0.005000006696017181
0.163,0.017941248800416594,0.0,0.18410309784800963,0.0005143975970373436,1.0857766224285752,0.005000006010844257
0.164,0.01796651195831133,0.0,0.1839579714202332,0.0004961020900882984,1.0876194513270714,0.00500000539650245
0.165,0.017991775116206067,0.0,0.1838097360796387,0.000478478478813228,1.0894623089591893,0.005000004845636904
0.166,0.018017038274100804,0.0,0.18365839172949353,0.000461501716260886,1.091305195360573,0.005000004351630496
0.167,0.01804230143199554,0.0,0.18350393836155787,0.0004451467554800261,1.0931481105668663,0.005000003908534534
0.168,0.018067564589890277,0.0,0.18334637605631196,0.00042938854951940156,1.0949910546137132,0.00500000351100536
0.169,0.018092827747785013,0.0,0.18318570498330952,0.00041420205142776603,1.0968340275367572,0.005000003154246427
0.17,0.018118090905679753,0.0,0.18302192540160073,0.0003995622142538731,1.0986770293716424,0.005000002833955453
0.171,0.01814335406357449,0.0,0.1828513612919103,0.00038544851582638555,1.1005200936054356,0.005000002546372319
0.17200000000000001,0.018168617221469226,0.0,0.18266187769263198,0.0003718692170495344,1.102363330797958,0.005000002288680491
0.17300000000000001,0.018193880379363963,0.0,0.18250078707470993,0.0003587649437563945,1.1042063102769224,0.005000002057002779
0.17400000000000002,0.0182191435372587,0.0,0.18236856493879208,0.0003461227563512411,1.106049027368713,0.005000001848780345
0.17500000000000002,0.018244406695153436,0.0,0.18226569278316285,0.0003339297152383496,1.1078914773997126,0.0050000016616918
0.176,0.018269669853048173,0.0,0.18219265851231006,0.00032217288082199565,1.1097336556963049,0.005000001493633079
0.177,0.01829493301094291,0.0,0.18214995685265103,0.000310839313506454,1.1115755575848736,0.005000001342698795
0.178,0.018320196168837646,0.0,0.18213808977583307,0.0002999160736960003,1.113417178391802,0.005000001207164998
0.179,0.018345459326732382,0.0,0.18215756692880455,0.00028939022179490996,1.1152585134434736,0.005000001085473249
0.18,0.018370722484627122,0.0,0.18220890607139092,0.0002792488182074583,1.1170995580662715,0.005000000976215925
0.181,0.01839598564252186,0.0,0.18229263352080802,0.0002694789233379207,1.1189403075865796,0.0050000008781226875
0.182,0.018421248800416595,0.0,0.18240928460387412,0.0002600675975905725,1.120780757330781,0.005000000790048025
0.183,0.018446511958311332,0.0,0.18255940411586838,0.00025100190136968906,1.1226209026252596,0.00500000071095981
0.184,0.01847177511620607,0.0,0.1827435467869909,0.00024226889507954577,1.1244607387963985,0.0050000006399287976
0.185,0.018497038274100805,0.0,0.18296227775592652,0.00023385563912441796,1.1263002611705812,0.005000000576119005
0.186,0.01852230143199554,0.0,0.1832161730504696,0.00022574919390858103,1.1281394650741914,0.0050000005187789045
0.187,0.018547564589890278,0.0,0.18350582007571054,0.00021793661983631024,1.1299783458336121,0.005000000467233377
