Time [s],Lmtc [m],STIM [ ],Fsee [N],Gamma [ ],Lcerel [ ],q [ ]
0.0,0.017639753877878292,1.0,11.024655917158789,0.7239013326275496,0.8189861449589995,0.9573315044112433
0.0005,0.017599753877878294,0.0,10.793835390656678,0.7106617896439037,0.8186815130946339,0.9547951204144232
0.001,0.017559753877878292,0.0,10.568336670637628,0.6976643899978824,0.8183437822945062,0.9521089244412945
0.0015,0.017519753877878293,0.0,10.348028248423132,0.6849047050050115,0.8179734149959393,0.9492647380369554
0.002,0.01747975387787829,0.0,10.132778995650952,0.6723783872032106,0.8175709025284417,0.9462540523681332
0.0025,0.017439753877878293,0.0,9.922458237472863,0.6600811684311624,0.8171367651318366,0.9430680318373075
0.003,0.01739975387787829,0.0,9.716935816640465,0.6480088584253361,0.8166715520359422,0.9396975207648912
0.0035,0.017359753877878293,0.0,9.516082176147258,0.6361573438141617,0.8161758412734678,0.936133053484107
0.004,0.01731975387787829,0.0,9.319768414347802,0.6245225863522778,0.8156502397726918,0.9323648680853633
0.0045000000000000005,0.017279753877878293,0.0,9.127866362474325,0.6131006216937364,0.8150953831361992,0.9283829244440805
0.005,0.01723975387787829,0.0,8.940248643898848,0.6018875579920467,0.8145119355931706,0.9241769269291951
0.0055,0.017199753877878293,0.0,8.756788741971727,0.5908795745676578,0.8139005898026367,0.91973635224605
0.006,0.01715975387787829,0.0,8.577361065900984,0.5800729206394748,0.8132620666344065,0.9150504829270285
0.006500000000000001,0.017119753877878292,0.0,8.401841008671324,0.5694639139839349,0.8125971150071111,0.9101084469179264
0.007,0.01707975387787829,0.0,8.230105021732902,0.5590489397833813,0.8119065114693419,0.9048992637190505
0.0075,0.017039753877878292,0.0,8.062030773654561,0.548824449966702,0.8111910586249699,0.8994118973230206
0.008,0.01699975387787829,0.0,7.8974973198606095,0.5387869627264874,0.8104515832923447,0.8936353164955841
0.0085,0.016959753877878292,0.0,7.736384737159679,0.5289330585518299,0.8096889417234159,0.8875585637403947
0.009000000000000001,0.016919753877878294,0.0,7.578574368188825,0.5192593801784344,0.8089040168616556,0.8811708311381435
0.0095,0.01687975387787829,0.0,7.423948879439624,0.5097626313711905,0.8080977179727397,0.8744615445952201
0.01,0.016839753877878293,0.0,7.272392307744902,0.5004395756415408,0.8072709804077435,0.867420456229999
0.0105,0.01679975387787829,0.0,7.123790105738986,0.4912870349648498,0.8064247653663352,0.8600377447551026
0.011,0.016759753877878293,0.0,6.978029186633311,0.4823018884977713,0.8055600596599723,0.8523041235606625
0.0115,0.01671975387787829,0.0,6.834997968652648,0.4734810712956174,0.8046778754750952,0.8442109560081426
0.012,0.016679753877878293,0.0,6.694586419481621,0.4648215730297271,0.8037792501363213,0.8357503772259426
0.0125,0.01663975387787829,0.0,6.556323371396685,0.45632044683997364,0.8028705384006274,0.826918752329565
0.013000000000000001,0.016641859141036185,0.0,6.628681940184607,0.4479748018981053,0.8019711005321131,0.8177225154643589
0.013500000000000002,0.01664396440419408,0.0,6.698392670450604,0.4397817933325489,0.8011156128562568,0.8081815798705417
0.014000000000000002,0.016646069667351975,0.0,6.765266469853583,0.4317386295506358,0.8003061070003458,0.7982976611974691
0.014500000000000002,0.01664817493050987,0.0,6.829361537421904,0.4238425703747885,0.7995410706573531,0.7880714076565108
0.015000000000000003,0.016650280193667766,0.0,6.890632934361552,0.41609092538561093,0.7988205187131685,0.7775058495649771
0.015500000000000003,0.01665238545682566,0.0,6.949040026765431,0.40848106354292896,0.7981444349095964,0.766605453632
0.016000000000000004,0.016654490719983553,0.0,7.004543058816662,0.40101037819722557,0.7975128208703405,0.7553761639104305
0.016500000000000004,0.01665659598314145,0.0,7.057101026286182,0.3936763325898232,0.7969257256377436,0.7438255319261017
0.017000000000000005,0.016658701246299343,0.0,7.10667385481344,0.38647641560544715,0.7963832143200449,0.7319626605870282
0.017500000000000005,0.016660806509457237,0.0,7.153220620767907,0.3794081868210497,0.7958853927916915,0.7197983104175656
0.018000000000000006,0.016662911772615134,0.0,7.196701826460629,0.37246922667799803,0.7954323755352114,0.707344794433891
0.018500000000000006,0.016665017035773028,0.0,7.237077916594205,0.36565717780553286,0.7950243063599473,0.6946160470742808
0.019000000000000006,0.01666712229893092,0.0,7.274311551905119,0.3589697206760243,0.794661326786043,0.6816275214216904
0.019500000000000007,0.016669227562088818,0.0,7.308366434737662,0.3524045762064786,0.7943435926221519,0.6683961544467804
0.020000000000000007,0.016671332825246712,0.0,7.339206963857192,0.3459594936102721,0.7940712788913107,0.6549402757875028
0.020500000000000008,0.016673438088404605,0.0,7.3667980000082,0.3396322750765059,0.7938445832261398,0.6412795723014293
0.021000000000000008,0.016675543351562502,0.0,7.391104880905959,0.3334207757700051,0.7936637258688427,0.6274349889481462
0.02150000000000001,0.016677648614720396,0.0,7.41209707000321,0.32732289057903236,0.7935288998834726,0.6134285314564224
0.02200000000000001,0.01667975387787829,0.0,7.429751335838535,0.3213365328234241,0.7934402282362554,0.5992830326592232
0.02250000000000001,0.016681859141036186,0.0,7.444043777350165,0.31545966192558783,0.7933978737697245,0.5850221778132283
0.02300000000000001,0.01668396440419408,0.0,7.455281469650219,0.3096902792740265,0.7933975013426752,0.5706654812284173
0.02350000000000001,0.016686069667351977,0.0,7.46440940378136,0.30402641483113424,0.7934260931420297,0.5562233979817092
0.02400000000000001,0.01668817493050987,0.0,7.4713945390469645,0.2984661377820796,0.7934840476585404,0.5417209754305469
0.02450000000000001,0.016690280193667764,0.0,7.475808251159309,0.2930075553893001,0.7935771804858663,0.5271894851460731
0.025000000000000012,0.01669238545682566,0.0,7.477121814799804,0.2876488065381649,0.7937126843691535,0.5126618805922161
0.025500000000000012,0.016694490719983555,0.0,7.474680900300717,0.28238806578348447,0.7938994895774555,0.49817292390246376
0.026000000000000013,0.01669659598314145,0.0,7.467640171743728,0.2772235405599302,0.7941491781615954,0.48375986014197875
0.026500000000000013,0.016698701246299345,0.0,7.454895040171476,0.27215346779794913,0.7944769531352448,0.46946309324321317
0.027000000000000014,0.01670080650945724,0.0,7.435022813641794,0.26717612401441443,0.7949025073157907,0.4553267109979678
0.027500000000000014,0.016702911772615132,0.0,7.406124004138689,0.2622898117449533,0.7954523084941567,0.44140036657305964
0.028000000000000014,0.01670501703577303,0.0,7.365876010958622,0.2574928692147141,0.7961590551956711,0.4277380315808577
0.028500000000000015,0.016707122298930923,0.0,7.311502156335981,0.2527836601043872,0.7970623982053989,0.41439797381562626
0.029000000000000015,0.016709227562088817,0.0,7.240132160602552,0.24816057980633408,0.7982043864774392,0.4014371823859931
0.029500000000000016,0.016711332825246714,0.0,7.14970455231373,0.2436220529177682,0.7996173634186172,0.3888982800055336
0.030000000000000016,0.016713438088404607,0.0,7.04005463048166,0.2391665330792625,0.8013088127099922,0.37679436191347976
0.030500000000000017,0.0167155433515625,0.0,6.913268845641644,0.23479250218183473,0.80325562574074,0.36510481831153047
0.031000000000000017,0.016717648614720398,0.0,6.772978772095453,0.23049846973218707,0.8054127282169615,0.3537862601011224
0.031500000000000014,0.01671975387787829,0.0,6.62318648359891,0.22628297465107092,0.8077285875656636,0.34278971059457114
0.032000000000000015,0.016721859141036185,0.0,6.467461749738233,0.22214457806858856,0.8101561744300387,0.3320720927566577
0.032500000000000015,0.016723964404194082,0.0,6.3084837584772435,0.2180818702011656,0.8126596942672834,0.3216026870552743
0.033000000000000015,0.016726069667351975,0.0,6.1480450333364995,0.2140934669723058,0.8152150256990105,0.3113629330682135
0.033500000000000016,0.01672817493050987,0.0,5.987344211613463,0.21017800952259935,0.8178059083873988,0.30134218093096304
0.034000000000000016,0.016730280193667766,0.0,5.827203794502802,0.20633416244935213,0.8204210533644899,0.2915345550528438
0.03450000000000002,0.01673238545682566,0.0,5.668188860006557,0.202560617136327,0.823052600130665,0.2819372589646378
0.03500000000000002,0.016734490719983553,0.0,5.510726699700259,0.19885608768439306,0.8256944433006705,0.2725488749406989
0.03550000000000002,0.01673659598314145,0.0,5.355091181658882,0.1952193118388976,0.8283426058036631,0.2633695621217419
0.03600000000000002,0.016738701246299344,0.0,5.201489886197755,0.1916489378043604,0.8309939646672915,0.2543994914900769
0.03650000000000002,0.016740806509457237,0.0,5.0500655887479216,0.18814386117810666,0.8336462888460608,0.24563987824330333
0.03700000000000002,0.016742911772615134,0.0,4.900967948981028,0.18470289421969785,0.8362970963763452,0.23709098899143807
0.03750000000000002,0.016745017035773028,0.0,4.754329011252872,0.18132488797621205,0.8389440549828829,0.22875287941536965
0.03800000000000002,0.01674712229893092,0.0,4.610258524025422,0.17800868138454584,0.8415850755508769,0.22062531708868446
0.03850000000000002,0.01674922756208882,0.0,4.468832509005448,0.1747531343871577,0.8442185339712748,0.2127080456406297
0.03900000000000002,0.016751332825246712,0.0,4.33012849178608,0.17155713068972236,0.8468426764792135,0.2050003541642815
0.03950000000000002,0.016753438088404606,0.0,4.194214104141255,0.16841957616120906,0.8494558180482601,0.19750124456567789
0.04000000000000002,0.016755543351562503,0.0,4.061143713526846,0.16533940991199592,0.8520564116490342,0.1902095267643724
0.04050000000000002,0.016757648614720396,0.0,3.9309619828544173,0.16231558526654685,0.8546429938478538,0.18312373691438386
0.04100000000000002,0.01675975387787829,0.0,3.8037045114377572,0.15934705735450055,0.8572141808766912,0.176242115883328
0.04150000000000002,0.016761859141036187,0.0,3.6793947057029475,0.15643282256104463,0.8597687377608412,0.16956278061960792
0.04200000000000002,0.01676396440419408,0.0,3.5580454034152424,0.1535718957803276,0.862305560306703,0.1630836552375234
0.042500000000000024,0.016766069667351974,0.0,3.4396609955540116,0.15076329811293465,0.8648236450510858,0.15680243083095566
0.043000000000000024,0.01676817493050987,0.0,3.3242372152812165,0.14800606077952094,0.8673221037361063,0.15071659955591035
0.043500000000000025,0.016770280193667764,0.0,3.211760731970219,0.14529924993395082,0.8698001832126155,0.14482354430624605
0.044000000000000025,0.016772385456825658,0.0,3.102211561189685,0.1426419513676561,0.8722572274974486,0.13912048583175188
0.044500000000000026,0.016774490719983555,0.0,2.9955654217518926,0.14003324660650188,0.8746926366742304,0.13360441409155926
0.045000000000000026,0.01677659598314145,0.0,2.8917915918463475,0.13747223851004503,0.8771059200825942,0.12827219926952924
0.04550000000000003,0.016778701246299346,0.0,2.7908568243611556,0.13495807060726955,0.8794966196005325,0.12312061524663813
0.04600000000000003,0.01678080650945724,0.0,2.692725733273835,0.13248988354593585,0.8818643046802338,0.11814624437529561
0.04650000000000003,0.016782911772615133,0.0,2.5973597604311416,0.13006683302039537,0.8842085996761871,0.11334555381949613
0.04700000000000003,0.01678501703577303,0.0,2.5047203627613137,0.12768809981260712,0.88652911448141,0.1087149058146485
0.04750000000000003,0.016787122298930923,0.0,2.4147684548997157,0.12535287272205123,0.8888254573564246,0.10425054132953541
0.04800000000000003,0.016789227562088817,0.0,2.3274639797394534,0.12306035224080031,0.8910972461149245,0.09994861205871372
0.04850000000000003,0.016791332825246714,0.0,2.2427671419255537,0.12080976067507287,0.8933440790979814,0.09580520892128419
0.04900000000000003,0.016793438088404607,0.0,2.1606382772657375,0.1186003309241757,0.8955655375210629,0.09181635449083507
0.04950000000000003,0.0167955433515625,0.0,2.0810374833490237,0.11643131329705758,0.8977611943555855,0.08797803719303973
0.05000000000000003,0.016797648614720398,0.0,2.003924561836021,0.1143019664476824,0.8999306160792941,0.08428620698619124
0.05050000000000003,0.01679975387787829,0.0,1.9292587820209453,0.1122115663500147,0.9020733694840462,0.08073680998933686
0.05100000000000003,0.016801859141036185,0.0,1.8569990638732867,0.11015940054622068,0.9041890178139322,0.07732578717225877
0.05150000000000003,0.016803964404194082,0.0,1.787103705975343,0.10814476965578142,0.9062771291911135,0.07404909127109899
0.05200000000000003,0.016806069667351976,0.0,1.7195302085372124,0.10616698701448939,0.908337283350898,0.07090269778457717
0.05250000000000003,0.01680817493050987,0.0,1.6542351517978606,0.1042253762166164,0.9103690775559874,0.06788261071723413
0.05300000000000003,0.016810280193667766,0.0,1.5911740248743398,0.10231927802503045,0.9123721346412605,0.06498488483439235
0.053500000000000034,0.01681238545682566,0.0,1.5303016847951996,0.10044804282474788,0.914346092912875,0.06220561563246926
0.054000000000000034,0.016814490719983553,0.0,1.4715718883454862,0.09861102917245529,0.9162906232986908,0.05954094769850211
0.054500000000000035,0.01681659598314145,0.0,1.414937010771649,0.09680760883558698,0.9182054426069889,0.05698709144395629
0.055000000000000035,0.016818701246299344,0.0,1.3603493892824106,0.09503716805540931,0.9200902761653759,0.054540320713470127
0.055500000000000035,0.016820806509457237,0.0,1.3077605165478945,0.09329910122483455,0.9219448860067223,0.05219697293189467
0.056000000000000036,0.016822911772615134,0.0,1.2571205947023847,0.0915928042007701,0.9237690903779229,0.04995344656045408
0.056500000000000036,0.016825017035773028,0.0,1.2083790444719325,0.08991773600537827,0.9255627529274394,0.0478062930008088
0.05700000000000004,0.01682712229893092,0.0,1.161486548863592,0.08827329991584645,0.9273257170831767,0.045752028083849025
0.05750000000000004,0.01682922756208882,0.0,1.1163927930756767,0.08665891587398487,0.9290578844754538,0.04378726259697631
0.05800000000000004,0.016831332825246712,0.0,1.0730463709069824,0.08507404318951514,0.9307592247542268,0.04190873349732251
0.05850000000000004,0.016833438088404606,0.0,1.031395891119227,0.08351817294361676,0.9324297420869048,0.04011328343558075
0.05900000000000004,0.016835543351562503,0.0,0.9913914424424979,0.08199070453682782,0.9340694237608348,0.03839769506361272
0.05950000000000004,0.016837648614720396,0.0,0.9529834934473379,0.0804912416151242,0.9356782805850878,0.036759080115478494
0.06000000000000004,0.01683975387787829,0.0,0.9161219598533061,0.079019151701019,0.9372563856942849,0.03519432686928984
0.06050000000000004,0.016841859141036187,0.0,0.8807561676268426,0.07757395467324758,0.9388038821645245,0.0337005922041664
0.06100000000000004,0.01684396440419408,0.0,0.8468356982889638,0.07615509335984491,0.9403209553024423,0.032275015637265314
0.06150000000000004,0.016846069667351974,0.0,0.8143142570822095,0.07476232572802245,0.9418076760228958,0.030915140457794015
0.06200000000000004,0.01684817493050987,0.0,0.7831430040948905,0.07339487909351286,0.9432642702725934,0.02961800861323724
0.06250000000000004,0.016850280193667765,0.0,0.753278376579096,0.07205260363931276,0.9446907971905087,0.02838138475035918
0.06300000000000004,0.016852385456825658,0.0,0.7246712124377068,0.07073473586314788,0.9460876090874524,0.027202489376228448
0.06350000000000004,0.016854490719983555,0.0,0.6972799514162712,0.06944109935914923,0.9474547890282589,0.026079182102204983
0.06400000000000004,0.01685659598314145,0.0,0.6710610154264408,0.06817139193426254,0.9487925618088604,0.025009256471670342
0.06450000000000004,0.016858701246299342,0.0,0.6459689778798405,0.0669250061516034,0.9501012993045539,0.023990298769373655
0.06500000000000004,0.01686080650945724,0.0,0.6219608198816299,0.06570135731258549,0.9513813317793572,0.023019998778755137
0.06550000000000004,0.016862911772615133,0.0,0.5989949543329496,0.06449992558219902,0.9526329891892859,0.022096184846763747
0.06600000000000004,0.016865017035773026,0.0,0.5770312110868199,0.06332045806742603,0.9538566002227907,0.021216976991121895
0.06650000000000005,0.016867122298930923,0.0,0.5560307631429039,0.06216256684603306,0.9550524942095041,0.020380437431990334
0.06700000000000005,0.016869227562088817,0.0,0.5359561020466416,0.06102584222350121,0.9562210007598655,0.019584674543688705
0.06750000000000005,0.016871332825246714,0.0,0.5167692068594721,0.05990990463686561,0.9573625432636217,0.018827888895496924
0.06800000000000005,0.016873438088404608,0.0,0.49843269301679594,0.0588143873198821,0.9584775849381235,0.018108352396354
0.06850000000000005,0.0168755433515625,0.0,0.4809115663098672,0.057738906394308155,0.9595665357425543,0.017424380555922436
0.06900000000000005,0.016877648614720398,0.0,0.46417221456771185,0.05668308352376387,0.9606298005218182,0.016774352235798602
0.06950000000000005,0.01687975387787829,0.0,0.4481829023377211,0.05564657861723785,0.9616677488262805,0.016156727720638052
0.07000000000000005,0.016881859141036185,0.0,0.43291281840629653,0.054629036840295214,0.9626807638121977,0.015570014004036611
0.07050000000000005,0.016883964404194082,0.0,0.4183322174831871,0.05363009829229265,0.9636692333111506,0.01501277083351088
0.07100000000000005,0.016886069667351976,0.0,0.40441020089964563,0.05264930891536417,0.9646336786170048,0.014483564737453651
0.07150000000000005,0.01688817493050987,0.0,0.391120389175187,0.051686406407011325,0.9655744248310938,0.013981120631559114
0.07200000000000005,0.016890280193667766,0.0,0.37843825207806164,0.05074119131392497,0.966491744011575,0.0135042405708342
0.07250000000000005,0.01689238545682566,0.0,0.36633386857355926,0.04981317996611703,0.9673862960448771,0.013051635125990921
0.07300000000000005,0.016894490719983554,0.0,0.35478604396187674,0.04890223831896032,0.9682582730404854,0.012622230467943179
0.07350000000000005,0.01689659598314145,0.0,0.3437659194487423,0.04800786299291271,0.9691084031709734,0.01221482835699456
0.07400000000000005,0.016898701246299344,0.0,0.33325541004950526,0.04712997843594035,0.9699367983274358,0.011828465564236144
0.07450000000000005,0.016900806509457238,0.0,0.32323275562744974,0.04626833130843955,0.9707438524957903,0.011462138109435586
0.07500000000000005,0.016902911772615135,0.0,0.31367468953376937,0.04542255104598042,0.9715301178250865,0.011114835776398628
0.07550000000000005,0.016905017035773028,0.0,0.30455923904746546,0.0445922785296989,0.9722961247653663,0.010785597678755802
0.07600000000000005,0.016907122298930922,0.0,0.2958653458485483,0.04377715464073086,0.9730424037666722,0.010473506111372153
0.07650000000000005,0.01690922756208882,0.0,0.2875728280285856,0.04297682026021226,0.9737694852790463,0.010177685171735507
0.07700000000000005,0.016911332825246712,0.0,0.2796632231487947,0.04219099826322473,0.974477837579591,0.009897328355002701
0.07750000000000005,0.016913438088404606,0.0,0.2721204368555939,0.04141956382534088,0.9751678134616469,0.009631715981051784
0.07800000000000006,0.016915543351562503,0.0,0.26492757470128,0.040662254382260093,0.9758398701615452,0.00938010954310405
0.07850000000000006,0.016917648614720397,0.0,0.2580683657507623,0.039918800846719275,0.9764944698617345,0.009141800943224806
0.07900000000000006,0.01691975387787829,0.0,0.25152720429154274,0.039188934131455334,0.9771320747446643,0.00891611383452128
0.07950000000000006,0.016921859141036187,0.0,0.2452891415936774,0.03847238588819493,0.9777531454630336,0.0087024027739751
0.08000000000000006,0.01692396440419408,0.0,0.23934126051157473,0.03776894028828334,0.9783580339509786,0.008500065803389915
0.08050000000000006,0.016926069667351974,0.0,0.23367111984362304,0.037078380113000235,0.9789470950201498,0.00830852726933467
0.08100000000000006,0.01692817493050987,0.0,0.22826610874724937,0.036400463046552846,0.979520735434548,0.008127231179891305
0.08150000000000006,0.016930280193667765,0.0,0.22311412137289838,0.03573494677314843,0.9800793619581739,0.007955647359830903
0.08200000000000006,0.01693238545682566,0.0,0.21820353469145257,0.03508158897699425,0.9806233813550287,0.0077932705108394
0.08250000000000006,0.016934490719983555,0.0,0.21352322380057726,0.034440156358060664,0.9811531974067647,0.007639621455557726
