Time [s],Lmtc [m],STIM [ ],Fsee [N],Gamma [ ],Lcerel [ ],q [ ]
0.0,0.018520111312323083,1.0,10.831796850410553,0.6567549371182225,0.8572819755461263,0.9510721258194609
0.0005,0.018475111312323083,0.0,10.532473369482634,0.6438910315388103,0.8570004628549078,0.9479805463160577
0.001,0.018430111312323083,0.0,10.242541874117085,0.6312790958283473,0.8566695642078599,0.9446937201691132
0.0015,0.018385111312323083,0.0,9.961701386980662,0.6189141944719658,0.8562900673326242,0.9412003674886377
0.002,0.018340111312323083,0.0,9.68965391188409,0.6067914889783065,0.8558628134043379,0.9374887615418404
0.0025,0.018295111312323083,0.0,9.426104770002052,0.5949062348176282,0.8553886953922166,0.9335467433293805
0.003,0.018250111312323083,0.0,9.17076272870979,0.5832537821017181,0.8548686581840541,0.9293617440389035
0.0035,0.018205111312323084,0.0,8.923340484683164,0.5718295696981799,0.8543036949616216,0.9249208113799486
0.004,0.018160111312323084,0.0,8.683554603593436,0.5606291281747332,0.8536948487373432,0.9202106482183338
0.0045000000000000005,0.018115111312323084,0.0,8.451126063860334,0.5496480732539644,0.8530432075741875,0.9152176546359624
0.005,0.018070111312323084,0.0,8.22578010461917,0.5388821089191002,0.852349906668305,0.9099279854186425
0.0055,0.018025111312323084,0.0,8.007246792033875,0.5283270209268793,0.8516161227868521,0.9043276114089954
0.006,0.017980111312323084,0.0,7.795261229930071,0.5179786759608858,0.8508430720337997,0.8984023950146864
0.006500000000000001,0.017935111312323084,0.0,7.589564298426895,0.5078330139671832,0.8500320015434859,0.8921381709311994
0.007,0.017890111312323084,0.0,7.389900774749377,0.4978860657539576,0.8491842097346595,0.8855208659003878
0.0075,0.017845111312323084,0.0,7.196020365703049,0.48813394280069694,0.8483010351810016,0.8785366055151362
0.008,0.017800111312323084,0.0,7.007677874447893,0.47857283498598013,0.8473838544660628,0.8711718413308304
0.0085,0.01775511131232308,0.0,6.824633314363696,0.46919900869147063,0.8464340804645926,0.8634134917407613
0.009000000000000001,0.01771011131232308,0.0,6.646652011338638,0.46000880490591006,0.8454531606238677,0.8552490960132589
0.0095,0.01766511131232308,0.0,6.473504975911911,0.4509986361748386,0.8444425719012427,0.8466669779413453
0.01,0.01762011131232308,0.0,6.304972773408287,0.4421649614086488,0.8434037729802711,0.8376563728760112
0.0105,0.01757511131232308,0.0,6.140840668283752,0.4335043142855876,0.8423382597936317,0.8282076687086892
0.011,0.01753011131232308,0.0,5.9808983648614715,0.425013306217124,0.8412475685242432,0.8183126131915831
0.011111111111111112,0.017520111312323082,0.0,5.945902994867451,0.42314911677801403,0.8410019415405066,0.8160523957870305
0.011611111111111112,0.017522479733375715,0.0,6.045614034642866,0.4148609035838772,0.8399252744940668,0.805632113540765
0.012111111111111112,0.017524848154428344,0.0,6.141121333660261,0.40673500432983034,0.8389103392156294,0.7948150008804782
0.012611111111111113,0.017527216575480977,0.0,6.232336921660905,0.3987684717960848,0.8379567719065508,0.7836045141245358
0.013111111111111113,0.01752958499653361,0.0,6.319188784364465,0.39095824879153507,0.8370641006175314,0.7720057391576806
0.013611111111111114,0.01753195341758624,0.0,6.4016196514551575,0.38330099238534693,0.8362317618574394,0.7600251337443973
0.014111111111111114,0.017534321838638872,0.0,6.479576247361544,0.3757934269530406,0.8354592298888481,0.7476711041846422
0.014611111111111115,0.0175366902596915,0.0,6.552981126876634,0.36843291086248403,0.8347463479859006,0.7349552899369457
0.015111111111111115,0.017539058680744134,0.0,6.621772094455489,0.3612166163702053,0.8340928510977134,0.7218910013224836
0.015611111111111116,0.017541427101796767,0.0,6.685898396660796,0.3541416099894374,0.8334984126261319,0.7084932898075902
0.016111111111111118,0.017543795522849397,0.0,6.745301992441688,0.3472051473946738,0.8329628640379261,0.6947796192806686
0.016611111111111118,0.01754616394390203,0.0,6.799920534261758,0.3404046265680159,0.8324861557134392,0.680769755322008
0.01711111111111112,0.017548532364954662,0.0,6.849707320286619,0.3337373070943895,0.8320681223870351,0.6664849091581582
0.01761111111111112,0.01755090078600729,0.0,6.894619336731757,0.32720049834727116,0.8317086233015809,0.6519480870198765
0.01811111111111112,0.017553269207059925,0.0,6.934607514206811,0.320791785782138,0.8314076537405489,0.6371845905150088
0.01861111111111112,0.017555637628112557,0.0,6.969633353129366,0.3145086378755026,0.8311651513455189,0.6222208290856416
0.01911111111111112,0.017558006049165187,0.0,6.999665214914016,0.30834849429699274,0.8309810393367264,0.6070843230371077
0.01961111111111112,0.01756037447021782,0.0,7.024674422445612,0.3023089483976737,0.8308552711460502,0.5918039812359086
0.02011111111111112,0.01756274289127045,0.0,7.044637625935415,0.2963877082791236,0.8307878028254344,0.576409796212087
0.02061111111111112,0.017565111312323082,0.0,7.059805659049668,0.2905824494235069,0.8307755165281127,0.5609289273288508
0.021111111111111122,0.017567479733375715,0.0,7.071426793250499,0.2848909017584882,0.8308039625810344,0.5453766161076898
0.021611111111111123,0.017569848154428344,0.0,7.080021725153664,0.2793108364112474,0.8308670910753932,0.5297771719887349
0.022111111111111123,0.017572216575480977,0.0,7.08477886837348,0.27384006980759545,0.8309741085546586,0.5141716382427933
0.022611111111111123,0.01757458499653361,0.0,7.084876023860486,0.26847646107315637,0.8311343616494421,0.4986012101670689
0.023111111111111124,0.01757695341758624,0.0,7.079248911967862,0.26321790935413764,0.8313600097810196,0.4831097001229053
0.023611111111111124,0.017579321838638872,0.0,7.066517132517484,0.2580623577061548,0.8316669175193377,0.46774403723278124
0.024111111111111125,0.0175816902596915,0.0,7.044882384863408,0.2530077886800416,0.8320759016795736,0.4525550329489635
0.024611111111111125,0.017584058680744134,0.0,7.01201602288804,0.24805222593394266,0.8326141664110331,0.43759823931826974
0.025111111111111126,0.017586427101796767,0.0,6.965044504667189,0.24319373103053324,0.8333157216138455,0.4229335517600883
0.025611111111111126,0.017588795522849397,0.0,6.900620058290872,0.2384304013528012,0.8342209641113537,0.4086238276586568
0.026111111111111127,0.01759116394390203,0.0,6.815748966911429,0.23376037262762328,0.8353676155339996,0.39472452042171774
0.026611111111111127,0.017593532364954662,0.0,6.707971729143167,0.22918181772338164,0.8367890741893765,0.38128167928363554
0.027111111111111127,0.01759590078600729,0.0,6.578333347270459,0.22469294470260323,0.8384796142892152,0.36829674999829826
0.027611111111111128,0.017598269207059924,0.0,6.430146970999238,0.22029199689816148,0.8404075160622593,0.3557426040814577
0.02811111111111113,0.017600637628112557,0.0,6.268370154356425,0.2159772520744077,0.8425208337421253,0.3435716287521168
0.02861111111111113,0.017603006049165187,0.0,6.097982365115045,0.211747021749945,0.844765483743131,0.33173536067539505
0.02911111111111113,0.01760537447021782,0.0,5.922927190654186,0.20759965050899334,0.8470977423682426,0.3201970454318666
0.02961111111111113,0.01760774289127045,0.0,5.74600800690845,0.20353351536021977,0.8494859654808753,0.30893276110225515
0.03011111111111113,0.017610111312323082,0.0,5.569099681470794,0.19954702574099945,0.8519086032702654,0.29792881769767643
0.03061111111111113,0.017612479733375715,0.0,5.393412375477665,0.1956386214621248,0.8543514660425385,0.2871785650452645
0.03111111111111113,0.017614848154428344,0.0,5.219721403088277,0.19180677256499631,0.8568052328066321,0.27667963751397917
0.03161111111111113,0.017617216575480977,0.0,5.048505371355107,0.18804997948162458,0.8592639763620141,0.2664322982180539
0.03211111111111113,0.01761958499653361,0.0,4.880120781419936,0.18436666354241177,0.8617230457134855,0.25643704192577327
0.03261111111111113,0.01762195341758624,0.0,4.714791677173267,0.18075548949174539,0.864179320880619,0.2466957676387874
0.03311111111111113,0.017624321838638872,0.0,4.552728898019026,0.1772150512209506,0.8666296493961471,0.23720939920206038
0.03361111111111113,0.017626690259691505,0.0,4.394101284492973,0.17374400991786138,0.8690712620833122,0.22797869372298585
0.034111111111111134,0.017629058680744134,0.0,4.239033118359985,0.17034094725670726,0.871501847475792,0.21900382298897836
0.034611111111111134,0.017631427101796767,0.0,4.087610046444078,0.1670045447653134,0.8739195070015086,0.21028490557917573
0.035111111111111135,0.017633795522849396,0.0,3.939912545516524,0.16373351209636944,0.8763222830799199,0.20182143927626617
0.035611111111111135,0.01763616394390203,0.0,3.7960038858233722,0.16052654128950022,0.8787083436252082,0.1936123297024009
0.036111111111111135,0.017638532364954662,0.0,3.6559269875443503,0.1573823872208453,0.8810760466067352,0.1856562074786047
0.036611111111111136,0.01764090078600729,0.0,3.5197078796827164,0.1542998306005822,0.8834239050402057,0.17795130717690585
0.037111111111111136,0.017643269207059924,0.0,3.387358283711363,0.1512776458349125,0.885750562120954,0.17049538013811225
0.03761111111111114,0.017645637628112557,0.0,3.258870445561294,0.14831466954580122,0.888054893753671,0.16328598308213416
0.03811111111111114,0.017648006049165187,0.0,3.1342238134497067,0.14540971862115,0.8903359195403353,0.15632020186684073
0.03861111111111114,0.01765037447021782,0.0,3.013383505197734,0.1425616686067104,0.8925928463229054,0.14959492692341203
0.03911111111111114,0.01765274289127045,0.0,2.896302685688806,0.13976939428112492,0.8948250466982807,0.14310669093404485
0.03961111111111114,0.01765511131232308,0.0,2.7829248972875336,0.13703181179563545,0.8970320351743118,0.13685179718238413
0.04011111111111114,0.017657479733375715,0.0,2.6731881656785923,0.13434784438586594,0.8992134078186711,0.13082621986671014
0.04061111111111114,0.017659848154428344,0.0,2.5670215063355046,0.13171642563725927,0.9013689181649998,0.12502568126935
0.04111111111111114,0.017662216575480977,0.0,2.4643532147173985,0.12913655045413033,0.9034983339837828,0.11944574104860374
0.04161111111111114,0.01766458499653361,0.0,2.3651108224561708,0.12660720867035827,0.9056014403114845,0.11408165829826042
0.04211111111111114,0.01766695341758624,0.0,2.26921880073313,0.12412737808047415,0.9076780882710335,0.10892843488037983
0.04261111111111114,0.017669321838638872,0.0,2.1766028495202434,0.12169613059486657,0.9097281142726888,0.10398106907932853
0.04311111111111114,0.017671690259691505,0.0,2.0871919587775896,0.1193125169411535,0.9117512955289994,0.09923428747294182
0.04361111111111114,0.017674058680744134,0.0,2.0009163207535385,0.11697560271114751,0.9137473891189201,0.09468268547378242
0.04411111111111114,0.017676427101796767,0.0,1.9177075046544974,0.11468446641107762,0.9157161267054751,0.0903207519106673
0.04461111111111114,0.017678795522849396,0.0,1.8374971404559932,0.1124382079184901,0.9176572421132626,0.08614292546084014
0.04511111111111114,0.01768116394390203,0.0,1.7602185866544717,0.11023594699887297,0.9195704342607581,0.08214360294385707
0.045611111111111144,0.017683532364954662,0.0,1.685807006500679,0.1080768282970236,0.9214553625005888,0.07831717204542368
0.046111111111111144,0.01768590078600729,0.0,1.6141973241249694,0.10596000054142414,0.9233116922813461,0.0746580044924371
0.046611111111111145,0.017688269207059924,0.0,1.5453240701332032,0.1038846351543779,0.9251391008770489,0.07116051439460669
0.047111111111111145,0.017690637628112557,0.0,1.4791219393217843,0.10184992815340704,0.9269372660554879,0.06781917303677358
0.047611111111111146,0.017693006049165187,0.0,1.4155253724859407,0.09985507829403356,0.9287058781166552,0.06462848538472192
0.048111111111111146,0.01769537447021782,0.0,1.3544677750960608,0.09789930467620546,0.9304446630388754,0.06158304245185546
0.04861111111111115,0.017697742891270452,0.0,1.2958818768218165,0.09598183241210982,0.9321533781939768,0.05867750485758813
0.04911111111111115,0.01770011131232308,0.0,1.2396996046322486,0.09410192257455537,0.9338318205424002,0.05590666519950858
0.04961111111111115,0.017702479733375714,0.0,1.1858534413528046,0.09225883809795589,0.9354797942547098,0.05326538945629402
0.05011111111111115,0.017704848154428344,0.0,1.1342748183811686,0.09045184992180307,0.9370971583561496,0.050748646977430215
0.05061111111111115,0.017707216575480977,0.0,1.0848935042697396,0.0886802271267125,0.9386838516902093,0.04835150650768226
0.05111111111111115,0.01770958499653361,0.0,1.0376408764269143,0.0869432918952194,0.9402398049558298,0.04606920713009735
0.05161111111111115,0.01771195341758624,0.0,0.9924487819520665,0.08524040825338329,0.9417649748652392,0.043897144892854754
0.05211111111111115,0.017714321838638872,0.0,0.9492486216165237,0.08357087737211989,0.9432593760143368,0.041830732955705566
0.05261111111111115,0.017716690259691505,0.0,0.9079695418579066,0.08193394225873227,0.9447231453036957,0.03986543606617657
0.05311111111111115,0.017719058680744134,0.0,0.8685447144898584,0.08032915128695561,0.9461563507270302,0.03799721947028031
0.05361111111111115,0.017721427101796767,0.0,0.8309081646926796,0.07875576431293888,0.9475590886941605,0.03622177476838949
0.05411111111111115,0.017723795522849396,0.0,0.7949941165694233,0.07721318094991585,0.9489315091366988,0.03453509648660216
0.05461111111111115,0.01772616394390203,0.0,0.7607392270398207,0.07570091386817501,0.9502737430469755,0.03293341570105282
0.05511111111111115,0.017728532364954662,0.0,0.7280797658298878,0.07421846752380791,0.95158599998068,0.031413058517871836
0.05561111111111115,0.01773090078600729,0.0,0.6969517623007478,0.07276501651734742,0.9528685706076525,0.029970104887592882
0.05611111111111115,0.017733269207059924,0.0,0.6672935048014006,0.07133994173875159,0.9541217413460484,0.028600996044975294
0.056611111111111154,0.017735637628112557,0.0,0.6390451111561823,0.06994278345053077,0.9553458084659191,0.02730245135310433
0.057111111111111154,0.017738006049165186,0.0,0.6121480391906556,0.06857298666096517,0.956541096418201,0.02607119746811702
0.057611111111111155,0.01774037447021782,0.0,0.5865425258808863,0.06723002560222809,0.9577080606924736,0.02490411005134609
0.058111111111111155,0.017742742891270452,0.0,0.5621723271241443,0.06591336572409842,0.9588471076404033,0.023798157649333285
0.058611111111111155,0.01774511131232308,0.0,0.5389847849699853,0.0646224984026295,0.9599585835949918,0.02275043380982036
0.059111111111111156,0.017747479733375714,0.0,0.5169292190308411,0.06335691548317712,0.9610428339788621,0.021758137205565464
0.059611111111111156,0.017749848154428344,0.0,0.4959550080717236,0.062116024140895267,0.962100283811366,0.020818508303807607
0.06011111111111116,0.017752216575480977,0.0,0.4760166661429327,0.06089946381275831,0.9631312200500433,0.019929070270301052
0.06061111111111116,0.01775458499653361,0.0,0.4570659005624398,0.05970671012127136,0.9641361318234445,0.01908732259512347
0.06111111111111116,0.01775695341758624,0.0,0.4390576631298999,0.05853731531792679,0.9651154514268561,0.018290917378572434
0.06161111111111116,0.01775932183863887,0.0,0.42195052190943727,0.05739092458723289,0.9660695280248738,0.017537658256897667
0.06211111111111116,0.017761690259691505,0.0,0.40570380821082414,0.056267157800964036,0.9669987527552057,0.01682541623573257
0.06261111111111116,0.017764058680744134,0.0,0.3902759536515434,0.055165495836923976,0.9679036414587755,0.016152062633527614
0.06311111111111116,0.017766427101796767,0.0,0.3756273415610709,0.05408542503509762,0.9687847026866291,0.01551556577303818
0.06361111111111116,0.0177687955228494,0.0,0.3617200818496517,0.053026431735469885,0.9696424449898122,0.01491398515735885
0.06411111111111116,0.01777116394390203,0.0,0.34851799454125,0.051988024981883894,0.9704773744277225,0.01434548185364393
0.06461111111111116,0.017773532364954662,0.0,0.3359869736698519,0.05096994285884081,0.971289971923554,0.013808425741951125
0.06511111111111116,0.01777590078600729,0.0,0.3240942141039942,0.049971827130044104,0.9720807289712842,0.013301199051099426
0.06561111111111116,0.017778269207059924,0.0,0.3128082702592336,0.0489932721754202,0.972850142265051,0.01282222971931007
0.06611111111111116,0.017780637628112557,0.0,0.30209910095486825,0.04803387237489553,0.9735987084989928,0.01237001718956856
0.06661111111111116,0.017783006049165186,0.0,0.29193801494994065,0.04709322471841719,0.9743269242425245,0.01194313151398618
0.06711111111111116,0.01778537447021782,0.0,0.28229767864655714,0.046171004523920686,0.9750352823220549,0.011540244951644334
0.06761111111111116,0.017787742891270452,0.0,0.2731519814694201,0.04526687379806803,0.9757242762000892,0.011160083403314496
0.06811111111111116,0.01779011131232308,0.0,0.2644759726451659,0.0443804666217231,0.9763944006736041,0.010801419758610452
0.06861111111111116,0.017792479733375714,0.0,0.2562458341597885,0.043511417075749785,0.977046150539576,0.010463085456733953
0.06911111111111116,0.017794848154428347,0.0,0.24843883308292536,0.042659359361303106,0.9776800204627373,0.010143968508908828
0.06961111111111117,0.017797216575480976,0.0,0.24103427176261927,0.04182398406455221,0.9782964431199453,0.009843030907618245
0.07011111111111117,0.01779958499653361,0.0,0.23401263144618867,0.041004996096718906,0.9788958354395539,0.00955928890563375
0.07061111111111117,0.01780195341758624,0.0,0.22735465000375807,0.040202064584350876,0.9794786536904393,0.009291794345534595
0.07111111111111117,0.01780432183863887,0.0,0.22104193548943893,0.03941485865399579,0.9800453541414779,0.009039646182488809
0.07161111111111117,0.017806690259691504,0.0,0.21505692579644156,0.038643047432201386,0.9805963930615461,0.008801988662176772
0.07211111111111117,0.017809058680744134,0.0,0.20938323040529241,0.03788632649792192,0.9811322014077404,0.008578017092096624
0.07261111111111117,0.017811427101796767,0.0,0.20400573167739375,0.03714442941964808,0.9816531737857277,0.00836697776706209
0.07311111111111117,0.0178137955228494,0.0,0.19890963440119142,0.0364170649572601,0.9821597285400393,0.008168147698539269
0.07361111111111117,0.01781616394390203,0.0,0.19408012530281565,0.035703949788520074,0.9826523305623996,0.00798084346193882
0.07411111111111117,0.017818532364954662,0.0,0.18950251290213863,0.035004807311968755,0.9831314820721461,0.007804418648604112
0.07461111111111117,0.01782090078600729,0.0,0.18516318400534693,0.034319355592410575,0.9835976547737544,0.007638258202714173
0.07511111111111117,0.017823269207059924,0.0,0.1810497597572268,0.03364732951615852,0.9840512744206257,0.007481782470676248
0.07561111111111117,0.017825637628112557,0.0,0.17715063259539254,0.03298847032862907,0.9844927493981723,0.00733444310396311
0.07611111111111117,0.017828006049165186,0.0,0.17345442589078444,0.03234251231538124,0.9849225071741371,0.007195718989953425
0.07661111111111117,0.01783037447021782,0.0,0.1699508666817039,0.03170920773646273,0.9853409289701871,0.007065119854465179
0.07711111111111117,0.017832742891270452,0.0,0.16663017433324162,0.03108831079094231,0.9857483910191345,0.006942181548570198
0.07761111111111117,0.01783511131232308,0.0,0.16348279227465867,0.030479571173676518,0.9861452827688802,0.00682646374598449
0.07811111111111117,0.017837479733375714,0.0,0.16049979633760922,0.02988275700475616,0.986531974842276,0.0067175529460517525
0.07861111111111117,0.017839848154428347,0.0,0.15767259646491213,0.02929763493640397,0.9869088393618922,0.006615057378631761
0.07911111111111117,0.017842216575480976,0.0,0.1549929245348417,0.028723969424341828,0.9872762494043451,0.006518605924501736
0.07961111111111117,0.01784458499653361,0.0,0.15245322973620287,0.028161543078968943,0.9876345467430688,0.006427850310380789
0.08011111111111117,0.01784695341758624,0.0,0.1500461572418971,0.027610134511761506,0.9879840800466366,0.00634246039892961
0.08061111111111117,0.01784932183863887,0.0,0.14776463974239423,0.027069522345238375,0.9883251965970143,0.006262123981268287
0.08111111111111118,0.017851690259691504,0.0,0.1456023404017889,0.026539502389071632,0.9886582056548754,0.006186548189676696
0.08161111111111118,0.017854058680744134,0.0,0.14355298888755139,0.026019864729302136,0.9889834291426675,0.006115455337034798
