Time [s],Lmtc [m],STIM [ ],Fsee [N],Gamma [ ],Lcerel [ ],q [ ]
0.0,0.018520111312323083,1.0,10.685702029525906,0.6427540141109984,0.858636112562218,0.948055505203174
0.0005,0.01847011131232308,0.0,10.355308766411612,0.630164349779979,0.8583265020715214,0.9447780108586677
0.001,0.018420111312323083,0.0,10.03592702876258,0.6178212836594363,0.8579609987227924,0.9412930423795062
0.0015,0.018370111312323082,0.0,9.72720088280847,0.6057199855023087,0.8575403832578254,0.9375886006531969
0.002,0.018320111312323084,0.0,9.428777689011838,0.5938557198379179,0.8570655030140177,0.9336522235952469
0.0025,0.018270111312323083,0.0,9.140308557255866,0.5822238435390478,0.8565372702362732,0.9294710057477442
0.003,0.01822011131232308,0.0,8.861448670017523,0.5708198054706116,0.8559566613225934,0.925031626148267
0.0035,0.018170111312323083,0.0,8.591857844849837,0.5596391421601334,0.855324713275887,0.9203203821660514
0.004,0.018120111312323082,0.0,8.331200683217018,0.5486774789829088,0.8546425239532022,0.9153232355807481
0.0045000000000000005,0.018070111312323084,0.0,8.079147151144902,0.5379305256483333,0.8539112475154214,0.9100258650104115
0.005,0.018020111312323082,0.0,7.835372657204331,0.527394077162168,0.8531320947205537,0.9044137331536561
0.0055,0.017970111312323084,0.0,7.599558600157165,0.5170640097263804,0.8523063279007167,0.8984721617845459
0.006,0.017920111312323083,0.0,7.371393226959198,0.5069362762673749,0.8514352518478694,0.892186416561466
0.006500000000000001,0.01787011131232308,0.0,7.150571396288041,0.49700690746502524,0.8505202161854345,0.8855418121802415
0.007,0.017820111312323084,0.0,6.936793331186901,0.4872720198624811,0.849562629556056,0.878523843167949
0.0075,0.017770111312323082,0.0,6.729765715126273,0.47772780833249634,0.8485639475773298,0.8711183096845838
0.008,0.017720111312323084,0.0,6.5292018853350156,0.46837054419359214,0.8475256703275729,0.8633114644973163
0.0085,0.017670111312323083,0.0,6.3348220032947715,0.4591965733262231,0.8464493398315929,0.8550901743826016
0.009000000000000001,0.01762011131232308,0.0,6.146353449482979,0.4502023137064208,0.8453365345456149,0.8464420931753962
0.0095,0.017570111312323083,0.0,5.963533932225416,0.44138423608685395,0.8441888295526747,0.8373558099475197
0.01,0.017520111312323082,0.0,5.78602367563902,0.4327388812485924,0.8430089023157736,0.8278217497743771
0.0105,0.01752274289127045,0.0,5.892876620768838,0.42426285409238895,0.8418438477369923,0.8178608163845853
0.011000000000000001,0.01752537447021782,0.0,5.995578675038047,0.41595286024656236,0.8407424567275779,0.8075018616245789
0.011500000000000002,0.017528006049165188,0.0,6.0940541758509665,0.4078056350415774,0.8397040315724803,0.7967457986128124
0.012000000000000002,0.017530637628112557,0.0,6.188231075300159,0.39981800074131724,0.8387279320663278,0.7855953592040799
0.012500000000000002,0.017533269207059925,0.0,6.278040273956682,0.39198682413632363,0.837813578665046,0.7740551462241597
0.013000000000000003,0.017535900786007294,0.0,6.363413673337599,0.3843090340396132,0.8369604713278282,0.762131755636129
0.013500000000000003,0.01753853236495466,0.0,6.44428339734564,0.37678162592964787,0.8361681940313652,0.7498338617616489
0.014000000000000004,0.017541163943902028,0.0,6.520583217666861,0.36940165641684986,0.8354363933693536,0.7371722478516801
0.014500000000000004,0.017543795522849397,0.0,6.592255091237715,0.36216622236876245,0.8347646978200363,0.7241597303940068
0.015000000000000005,0.017546427101796765,0.0,6.659237807866091,0.3550724952594164,0.8341528505907613,0.7108113314480811
0.015500000000000005,0.017549058680744134,0.0,6.721469774554079,0.3481177116733063,0.8336006728925556,0.6971442228559738
0.016000000000000007,0.017551690259691503,0.0,6.778889510608755,0.34129917113193886,0.8331080555344039,0.6831776752500184
0.016500000000000008,0.01755432183863887,0.0,6.831443360056151,0.334614210710326,0.8326748672018517,0.6689328476961031
0.017000000000000008,0.01755695341758624,0.0,6.879092466111768,0.32806018265696746,0.8323008735884897,0.6544325426196768
0.01750000000000001,0.01755958499653361,0.0,6.921791233396414,0.3216345235769676,0.8319859873839578,0.6397014583069525
0.01800000000000001,0.017562216575480977,0.0,6.959496120631274,0.31533472559850084,0.831730164086129,0.6247658859762565
0.01850000000000001,0.017564848154428346,0.0,6.992165880316575,0.30915833541247106,0.8315333984239586,0.6096535296293932
0.01900000000000001,0.017567479733375715,0.0,7.019772143733467,0.30310293475444566,0.83139560234766,0.5943931321482993
0.01950000000000001,0.017570111312323083,0.0,7.042297023207266,0.2971661423889376,0.8313166331409955,0.5790142819500352
0.02000000000000001,0.017572742891270452,0.0,7.059823319191663,0.29134563604764874,0.8312952612675306,0.5635461256480969
0.02050000000000001,0.017575374470217817,0.0,7.073373159100316,0.28563914208233937,0.8313195877084988,0.548006693001927
0.02100000000000001,0.017578006049165186,0.0,7.084119152693548,0.28004442061073603,0.831376086425627,0.5324121934966248
0.021500000000000012,0.017580637628112555,0.0,7.091141545141483,0.27455928487430237,0.8314751846345597,0.5168049509020061
0.022000000000000013,0.017583269207059923,0.0,7.093612893616243,0.2691815885314172,0.831626263963492,0.5012262319831149
0.022500000000000013,0.017585900786007292,0.0,7.090503185393185,0.2639092270731289,0.8318410568935815,0.4857194938002347
0.023000000000000013,0.01758853236495466,0.0,7.080467321670151,0.25874013615520397,0.8321349730574097,0.470331348300562
0.023500000000000014,0.01759116394390203,0.0,7.061732662608869,0.25367229223397025,0.8325284596935185,0.45511247767288443
0.024000000000000014,0.017593795522849398,0.0,7.032039760328387,0.2487037138156207,0.8330478155290226,0.44011783288869477
0.024500000000000015,0.017596427101796767,0.0,6.988483017592077,0.24383245677453344,0.8337272514560604,0.4254080126415456
0.025000000000000015,0.017599058680744135,0.0,6.927775111111406,0.23905661611050158,0.8346062343718471,0.4110454848601137
0.025500000000000016,0.017601690259691504,0.0,6.846433696163563,0.234374321706502,0.8357278530096578,0.3970919784354824
0.026000000000000016,0.017604321838638873,0.0,6.742295854944708,0.22978374117260514,0.8371217736407591,0.3835902119743512
0.026500000000000017,0.01760695341758624,0.0,6.615597653185856,0.22528307799124986,0.8387915503640282,0.37055161503487666
0.027000000000000017,0.017609584996533607,0.0,6.469435630433378,0.22087057098190113,0.8407081434258078,0.3579517823934007
0.027500000000000017,0.017612216575480975,0.0,6.309029128367893,0.21654449338441,0.8428167914068132,0.3457400990338333
0.028000000000000018,0.017614848154428344,0.0,6.139318625478458,0.21230315226211072,0.8450642434210898,0.33386870748587977
0.02850000000000002,0.017617479733375713,0.0,5.964605538368679,0.2081448878506883,0.8474027451806244,0.3222967442756918
0.02900000000000002,0.01762011131232308,0.0,5.78780125366473,0.20406807381677286,0.8497995331931713,0.3109991635772801
0.02950000000000002,0.01762274289127045,0.0,5.610644813492058,0.2000711142667854,0.852234977515903,0.2999640002678993
0.03000000000000002,0.01762537447021782,0.0,5.4345688044577765,0.1961524446123395,0.8546922400670917,0.2891821169543834
0.03050000000000002,0.017628006049165187,0.0,5.260418279529483,0.19231053026755482,0.8571611880403669,0.27865047216745337
0.03100000000000002,0.017630637628112556,0.0,5.088681911957092,0.1885437512048811,0.8596358204890452,0.26836897262951853
0.03150000000000002,0.017633269207059925,0.0,4.919682409275441,0.18485075571170848,0.8621120042839711,0.25833939788765314
0.03200000000000002,0.017635900786007293,0.0,4.753725830752436,0.18123009910434518,0.8645855522852771,0.24856250262578578
0.03250000000000002,0.017638532364954662,0.0,4.591030435306222,0.1776804025681753,0.8670532283357358,0.2390393760718926
0.03300000000000002,0.01764116394390203,0.0,4.431738591670028,0.17420023150696498,0.8695126614364908,0.22977091874204833
0.03350000000000002,0.0176437955228494,0.0,4.275962174428683,0.17078824742254686,0.8719617582929066,0.22075784205581966
0.03400000000000002,0.017646427101796765,0.0,4.123809018524803,0.16744309432309726,0.8743983344499956,0.21200004361269634
0.034500000000000024,0.017649058680744133,0.0,3.975362097350735,0.16416345715016362,0.8768204253217954,0.20349706015389862
0.035000000000000024,0.017651690259691502,0.0,3.830684385499795,0.16094807321053192,0.8792262337188914,0.1952480787339578
0.035500000000000025,0.01765432183863887,0.0,3.68982541551689,0.15779566270056414,0.88161404449974,0.18725168595064956
0.036000000000000025,0.01765695341758624,0.0,3.552814738175228,0.1547050021523161,0.8839823405813846,0.17950619800580725
0.036500000000000025,0.017659584996533608,0.0,3.419664516883031,0.15167489032212472,0.8863297822541886,0.17200955863127176
0.037000000000000026,0.017662216575480977,0.0,3.290373141571815,0.14870412127986288,0.8886551666540273,0.16475925752052087
0.037500000000000026,0.017664848154428345,0.0,3.164921355699525,0.1457915537668818,0.8909575100416325,0.15775260477544012
0.03800000000000003,0.017667479733375714,0.0,3.0432777593565516,0.1429360201250278,0.8932359761450026,0.15098644355999136
0.03850000000000003,0.017670111312323083,0.0,2.9253984928818455,0.1401364162455955,0.8954898987157476,0.14445744390187976
0.03900000000000003,0.01767274289127045,0.0,2.8112296346423817,0.13739163378075236,0.8977187571321771,0.13816191908482509
0.03950000000000003,0.01767537447021782,0.0,2.700708084835061,0.13470061528627014,0.8999221764550346,0.13209600131913238
0.04000000000000003,0.01767800604916519,0.0,2.593768254020982,0.13206231002913751,0.902099817375145,0.12625549200900527
0.04050000000000003,0.017680637628112558,0.0,2.4903379554984615,0.129475645189375,0.90425146001123,0.1206358639611474
0.04100000000000003,0.017683269207059923,0.0,2.3903425337220625,0.1269396526899473,0.9063769360254624,0.11523258219248601
0.04150000000000003,0.01768590078600729,0.0,2.2937100342706223,0.12445333878908287,0.9084760308368592,0.11004075570136747
0.04200000000000003,0.01768853236495466,0.0,2.2003674218194496,0.1220157216008762,0.9105485567723914,0.1050553050333319
0.04250000000000003,0.01769116394390203,0.0,2.110241064640399,0.11962585374765078,0.9125943464134955,0.10027104358749696
0.04300000000000003,0.017693795522849397,0.0,2.0232610960303004,0.11728279700357039,0.9146131621086089,0.09568261206634654
0.04350000000000003,0.017696427101796766,0.0,1.9393593058424938,0.11498563070995185,0.9166047350176129,0.09128454713605036
0.04400000000000003,0.017699058680744135,0.0,1.8584694188128776,0.11273347342394936,0.9185687563238787,0.0870713537015285
0.04450000000000003,0.017701690259691504,0.0,1.7805247247162983,0.11052542923087501,0.9205049278079144,0.0830374304533698
0.04500000000000003,0.017704321838638872,0.0,1.7054585106266018,0.1083606358660597,0.9224129540153146,0.07917719546506558
0.045500000000000033,0.01770695341758624,0.0,1.6332057348743303,0.10623825266812144,0.9242925038111467,0.07548506720284147
0.046000000000000034,0.01770958499653361,0.0,1.5637020518103484,0.10415744413441434,0.9261432312679099,0.07195545861675583
0.046500000000000034,0.017712216575480978,0.0,1.496882346373222,0.10211739565438796,0.9279648117224628,0.06858283687148935
0.047000000000000035,0.017714848154428347,0.0,1.4326810620657138,0.10011730797779056,0.9297569371797139,0.06536172482054085
0.047500000000000035,0.017717479733375712,0.0,1.371032091601393,0.09815639882653591,0.9315193223415382,0.062286718176425504
0.048000000000000036,0.01772011131232308,0.0,1.3118687634370998,0.09623390059039624,0.933251708804396,0.059352493198269865
0.048500000000000036,0.01772274289127045,0.0,1.2551235601846924,0.0943490545503355,0.9349538769584302,0.056553809369609936
0.04900000000000004,0.017725374470217818,0.0,1.20072771322726,0.09250112411225485,0.9366256627479425,0.05388554336991871
0.04950000000000004,0.017728006049165187,0.0,1.1486134865357878,0.09068938643791458,0.938266900138827,0.051342668881184994
0.05000000000000004,0.017730637628112556,0.0,1.098712516676134,0.08891312894683129,0.9398774698277086,0.048920268261628465
0.05050000000000004,0.017733269207059924,0.0,1.0509548169811407,0.08717162250520218,0.9414573348396167,0.04661350486516484
0.05100000000000004,0.017735900786007293,0.0,1.005270761888835,0.08546426512495679,0.9430064902079788,0.04441782746878227
0.05150000000000004,0.01773853236495466,0.0,0.961593017572932,0.08379034003137316,0.9445249069031898,0.04232860706987103
0.05200000000000004,0.01774116394390203,0.0,0.919853530363883,0.08214917139554818,0.9460126246236681,0.04034139196044742
0.05250000000000004,0.0177437955228494,0.0,0.8799838212891294,0.08054014826255589,0.9474697501042003,0.03845193234311053
0.05300000000000004,0.017746427101796768,0.0,0.8419146450163296,0.07896257620627273,0.9488964756914979,0.036655987593109396
0.05350000000000004,0.017749058680744136,0.0,0.8055811383660356,0.07741594521471874,0.950292913898681,0.03494964625921459
0.05400000000000004,0.017751690259691505,0.0,0.7709194150963967,0.07589961085723093,0.9516592053468612,0.03332893822475243
0.05450000000000004,0.01775432183863887,0.0,0.7378652498266944,0.07441294719190165,0.9529955678069323,0.03179004168708055
0.05500000000000004,0.01775695341758624,0.0,0.7063578476766631,0.07295548523127487,0.9543021675189206,0.030329415597357075
0.05550000000000004,0.017759584996533608,0.0,0.6763366117482542,0.07152682351408993,0.9555792317363616,0.02894369191253573
0.05600000000000004,0.017762216575480976,0.0,0.6477392409362085,0.07012618075575684,0.9568271262338005,0.02762922044039001
0.05650000000000004,0.017764848154428345,0.0,0.6205064019784382,0.06875282861314631,0.9580461886256924,0.026382541388007916
0.057000000000000044,0.017767479733375714,0.0,0.5945808200265928,0.0674063478734045,0.9592367589246735,0.025200619284470017
0.057500000000000044,0.017770111312323082,0.0,0.5699073071436704,0.06608624187324305,0.9603991765425335,0.024080439646468693
0.058000000000000045,0.01777274289127045,0.0,0.5464317281298084,0.06479198521704502,0.9615338206174476,0.023019068616976966
0.058500000000000045,0.01777537447021782,0.0,0.5240989817254194,0.06352308745188458,0.9626411968231323,0.022013716805687047
0.059000000000000045,0.017778006049165188,0.0,0.5028575634734709,0.0622790420279754,0.963721752542861,0.021061676693366865
0.059500000000000046,0.017780637628112557,0.0,0.4826588582926281,0.06105936016350845,0.9647758985566132,0.020160353800336518
0.060000000000000046,0.017783269207059926,0.0,0.46345697019284604,0.059863575746320924,0.9658040100179373,0.019307267682331465
0.06050000000000005,0.017785900786007294,0.0,0.44520720412166315,0.05869120351570317,0.9668064893600732,0.01850002160185963
0.06100000000000005,0.01778853236495466,0.0,0.42786528253627504,0.05754168131738388,0.9677838030069953,0.017736265045497142
0.06150000000000005,0.017791163943902028,0.0,0.4113928478281298,0.056414719489777325,0.968736224277558,0.01701392296702837
0.06200000000000005,0.017793795522849397,0.0,0.39574728485944494,0.055309811966316964,0.9696643032984991,0.016330868191525023
0.06250000000000004,0.017796427101796766,0.0,0.3808893979949903,0.054226535678610646,0.9705685137473469,0.015685113702170104
0.06300000000000004,0.017799058680744134,0.0,0.36678393998504766,0.05316457160849516,0.9714492154245644,0.015074812754033554
0.06350000000000004,0.017801690259691503,0.0,0.3533964915648327,0.05212357825471631,0.9723068000531903,0.014498179668478658
0.06400000000000004,0.01780432183863887,0.0,0.34069108203709003,0.051103071606842077,0.9731418157974157,0.013953428861329765
0.06450000000000004,0.01780695341758624,0.0,0.3286335053247774,0.05010257376425013,0.9739548030414414,0.013438860126462202
0.06500000000000004,0.01780958499653361,0.0,0.31719109685447683,0.049121606826318116,0.9747463021694689,0.012952852762579702
0.06550000000000004,0.017812216575480978,0.0,0.30633272048881544,0.04815970192669586,0.9755168507897266,0.012493867462010037
0.06600000000000004,0.017814848154428346,0.0,0.29602981393758615,0.04721660140158715,0.97626692161397,0.012060537098114932
0.06650000000000005,0.017817479733375715,0.0,0.2862548268742515,0.04629199895408472,0.9769970022975113,0.011651528995220626
0.06700000000000005,0.017820111312323084,0.0,0.2769810854308126,0.04538551987308079,0.9777076015173799,0.011265539393156124
0.06750000000000005,0.017822742891270452,0.0,0.26818312731489413,0.04449678944746756,0.9783992279506056,0.010901325878518792
0.06800000000000005,0.017825374470217818,0.0,0.259836648902639,0.04362543296613724,0.9790723902742177,0.010557705353093914
0.06850000000000005,0.017828006049165186,0.0,0.25191939651150586,0.042771130092906964,0.9797275400586537,0.0102335718650793
0.06900000000000005,0.017830637628112555,0.0,0.24441056787351778,0.041933586899717615,0.9803651011395466,0.009927880941303197
0.06950000000000005,0.017833269207059924,0.0,0.23728955965154813,0.04111246598468932,0.9809855430103708,0.00963962239720325
0.07000000000000005,0.017835900786007292,0.0,0.23053670103788615,0.04030742994289021,0.9815893351678063,0.00936783563356883
0.07050000000000005,0.01783853236495466,0.0,0.2241332109257374,0.0395181413693884,0.9821769471085335,0.009111607778219578
0.07100000000000005,0.01784116394390203,0.0,0.21806153541665907,0.03874428801720638,0.982748823641454,0.008870079436879614
0.07150000000000005,0.0178437955228494,0.0,0.21230575532280613,0.0379856146142987,0.9833053536653408,0.00864245063230681
0.07200000000000005,0.017846427101796767,0.0,0.20684997830553062,0.03724181961218485,0.9838469714905429,0.008427947112375263
0.07250000000000005,0.017849058680744136,0.0,0.20167897654233458,0.036512598428849526,0.9843741144042503,0.008225833025331288
0.07300000000000005,0.017851690259691504,0.0,0.19677819832479446,0.035797646482277436,0.9848872196936528,0.008035410262928557
0.07350000000000005,0.017854321838638873,0.0,0.1921337334981918,0.035096665778104046,0.9853867247039971,0.007856018593537264
0.07400000000000005,0.01785695341758624,0.0,0.1877322751751735,0.03440940985983937,0.9858730672347291,0.007687044981830947
0.07450000000000005,0.01785958499653361,0.0,0.18356109667191875,0.03373561751722003,0.9863466849552706,0.00752790365462676
0.07500000000000005,0.017862216575480976,0.0,0.17960803354749955,0.033075022691385715,0.986808014487319,0.007378037832502272
0.07550000000000005,0.017864848154428344,0.0,0.17586153108071603,0.03242737224313181,0.9872574857608506,0.007236922540545266
0.07600000000000005,0.017867479733375713,0.0,0.17231049046224248,0.031792408897187714,0.9876955308481122,0.007104059264676999
0.07650000000000005,0.01787011131232308,0.0,0.1689444180537115,0.031169877419555892,0.9881225710267246,0.0069789760757994175
0.07700000000000005,0.01787274289127045,0.0,0.1657541605991126,0.030559543455022365,0.9885389594041707,0.00686122960113386
0.07750000000000005,0.01787537447021782,0.0,0.16273061555492632,0.029961165291779283,0.9889450731075325,0.00675039866771177
0.07800000000000006,0.017878006049165188,0.0,0.15986503979623418,0.02937450282721069,0.9893412893601765,0.006646084906773951
0.07850000000000006,0.017880637628112556,0.0,0.1571494936300838,0.02879933526781395,0.9897279498555821,0.0065479144564948195
0.07900000000000006,0.017883269207059925,0.0,0.1545761663923181,0.02823543442069488,0.9901054099025378,0.006455532272009812
0.07950000000000006,0.017885900786007294,0.0,0.1521375843946044,0.02768257484029135,0.9904740214079992,0.006368602929689654
0.08000000000000006,0.017888532364954662,0.0,0.14982691135573445,0.027140550440572783,0.990834107787291,0.00628681201388072
0.08050000000000006,0.01789116394390203,0.0,0.14763738308623076,0.0266091457046701,0.9911860063352036,0.0062098607359006765
0.08100000000000006,0.0178937955228494,0.0,0.14556244739249163,0.02608814363705435,0.9915300564044593,0.00613746644703818
0.08150000000000006,0.017896427101796765,0.0,0.14359628798099858,0.02557734587592111,0.991866556269372,0.00606936437630418
0.08200000000000006,0.017899058680744134,0.0,0.14173340634090628,0.025076558503740683,0.9921957944067654,0.006005304734307669
