time [s],Lmtc [m],STIM [ ],Fsee [N]
0.0,0.0460067093372345,0.00030517578125,0.08163038203575769
0.0004999999999999,0.0460063777863979,0.0006103515625,0.0814207990483106
0.001,0.0460068248212337,0.0006103515625,0.08170923275322947
0.0014999999999999,0.0460069477558136,0.0006103515625,0.08178625167190055
0.002,0.0460064113140106,0.0006103515625,0.08144372184307899
0.0024999999999999,0.0460065975785255,0.0006103515625,0.08156645105067115
0.003,0.0460068024694919,0.0006103515625,0.08169779914182028
0.0034999999999999,0.0460065566003322,0.00030517578125,0.08154046711105338
0.004,0.0460068956017494,0.0006103515625,0.08175754289582925
0.0044999999999999,0.0460066869854927,0.0006103515625,0.08162298102476193
0.005,0.04600665345788,0.0006103515625,0.08160198857249955
0.0054999999999999,0.046006366610527,0.0006103515625,0.08142142121076727
0.006,0.0460068359971046,0.00030517578125,0.0817239925619777
0.0064999999999999,0.0460064671933651,0.0006103515625,0.08148895051944875
0.007,0.0460058115422725,0.0,0.0810801723699976
0.0074999999999999,0.0460050702095031,0.0,0.08063152614308668
0.008,0.0460027232766151,0.0,0.07919548952303047
0.0084999999999999,0.0459991544485092,0.0006103515625,0.07706563690102869
0.009,0.045993622392416,0.0,0.07384585048555631
0.0094999999999999,0.0459864884614944,0.00091552734375,0.06985859100849894
0.01,0.0459779351949691,0.00030517578125,0.06530702446654099
0.0104999999999999,0.0459676273167133,0.0,0.06011131210947988
0.011,0.0459568537771701,0.0006103515625,0.05507303210712916
0.0114999999999999,0.0459444746375083,0.0,0.04965557393672592
0.012,0.0459320768713951,0.00030517578125,0.044724127464940984
0.0124999999999999,0.0459192357957363,-0.00030517578125,0.04006406571007644
0.013,0.0459061935544014,0.00091552734375,0.03578437912168788
0.0134999999999999,0.0458931252360343,0.00091552734375,0.03193677108396721
0.014,0.0458798669278621,0.0006103515625,0.02842619484723404
0.0144999999999999,0.045867308974266,-0.00030517578125,0.02554104549591859
0.015,0.0458538867533206,0.00030517578125,0.022676091797829034
0.0154999999999999,0.045841384679079,0.00030517578125,0.020417315135122852
0.016,0.0458287484943866,0.0006103515625,0.01835741202294161
0.0164999999999999,0.0458158142864704,0.00030517578125,0.016433115779739257
0.017,0.045802928507328,0.0006103515625,0.014728883082414018
0.0174999999999999,0.0457904413342475,0.0006103515625,0.013304719224341453
0.018,0.0457778610289096,0.00030517578125,0.01200095143027316
0.0184999999999999,0.045765146613121,0.0,0.010795984879601057
0.019,0.0457525737583637,0.00091552734375,0.009739845105647061
0.0194999999999999,0.0457403846085071,0.0,0.008861527443353246
0.02,0.0457274466753006,0.00030517578125,0.007912965509907999
0.0204999999999999,0.0457153245806694,0.001220703125,0.007204267729645325
0.021,0.0457028709352016,0.00091552734375,0.006493133059579226
0.0214999999999999,0.0456903055310249,0.00030517578125,0.005822227228689466
0.022,0.045677825808525,0.0006103515625,0.005220361059837643
0.0224999999999999,0.0456650517880916,0.00030517578125,0.004622266630198755
0.023,0.0456528700888156,0.00030517578125,0.004157684622779939
0.0234999999999999,0.0456400178372859,0.0,0.0036362091794293915
0.024,0.0456276647746562,0.00091552734375,0.0032209872681905165
0.0244999999999999,0.0456153228878974,0.00091552734375,0.002837321898064533
0.025,0.0456021428108215,0.0,0.0023905449412159126
0.0254999999999999,0.0455899909138679,0.00030517578125,0.00208952069917573
0.026,0.045577485114336,0.00091552734375,0.0017763648360635998
0.0264999999999999,0.0455649085342884,0.00030517578125,0.0014836239357436621
0.027,0.045552309602499,0.00030517578125,0.001215961611137351
0.0274999999999999,0.0455396398901939,0.00030517578125,0.0009698966321656497
0.028,0.0455274358391761,0.00030517578125,0.0007797295064112424
0.0284999999999999,0.0455146245658397,0.0,0.0005761373593305348
0.029,0.0455025508999824,0.0006103515625,0.0004359926520827694
0.0294999999999999,0.0454896129667758,0.0,0.0002806992426361616
0.03,0.0454769618809223,0.00030517578125,0.0001666806526548314
0.0304999999999999,0.0454646237194538,0.0006103515625,8.772875398806546e-05
0.031,0.0454519428312778,0.0006103515625,2.8933978519707935e-05
0.0314999999999999,0.0454392731189727,0.00091552734375,1.7892596414925511e-06
0.032,0.0454265028238296,0.0006103515625,0.0
0.0324999999999999,0.0454144217073917,0.0,0.0
0.033,0.0454019084572792,0.0006103515625,0.0
0.0334999999999999,0.0453888401389122,0.00091552734375,0.0
0.034,0.0453767627477645,0.0006103515625,0.0
0.0344999999999999,0.0453640483319759,0.00030517578125,0.0
0.035,0.0453513525426387,0.0,0.0
0.0354999999999999,0.0453390516340732,0.0,0.0
0.036,0.0453266203403472,0.001220703125,0.0
0.0364999999999999,0.0453140102326869,0.0006103515625,0.0
0.037,0.0453009530901908,0.0006103515625,0.0
0.0374999999999999,0.0452891290187835,0.0006103515625,0.0
0.038,0.0452762842178344,0.00030517578125,0.0
0.0384999999999999,0.0452635884284973,0.00030517578125,0.0
0.039,0.0452513545751571,0.0006103515625,0.0
0.0394999999999999,0.0452387630939483,0.00030517578125,0.0
0.04,0.0452263131737709,0.0006103515625,0.0
0.0404999999999999,0.0452136658132076,0.00030517578125,0.0
0.041,0.0452010557055473,0.0006103515625,0.0
0.0414999999999999,0.0451884716749191,0.00030517578125,0.0
0.042,0.0451757200062274,0.0006103515625,0.0
0.0424999999999999,0.0451635383069515,0.00030517578125,0.0
0.043,0.0451508052647113,0.00030517578125,0.0
0.0434999999999999,0.0451383627951145,0.0006103515625,0.0
0.044,0.0451257266104221,0.00091552734375,0.0
0.0444999999999999,0.0451129041612148,0.0006103515625,0.0
0.045,0.0451004989445209,0.0006103515625,0.0
0.0454999999999999,0.0450876876711845,0.0006103515625,0.0
0.046,0.0450753085315227,0.00030517578125,0.0
0.0464999999999999,0.045062705874443,0.0,0.0
0.047,0.0450497828423976,0.0006103515625,0.0
0.0474999999999999,0.045037567615509,0.0006103515625,0.0
0.048,0.0450248271226882,0.00091552734375,0.0
0.0484999999999999,0.04501224309206,0.00030517578125,0.0
0.049,0.0449997894465923,0.0006103515625,0.0
0.0494999999999999,0.0449874475598335,0.0006103515625,0.0
0.05,0.0449746660888195,0.00091552734375,0.0
0.0504999999999999,0.0449621006846427,0.00030517578125,0.0
0.051,0.0449498780071735,0.00030517578125,0.0
0.0514999999999999,0.0449371561408042,0.0,0.0
0.052,0.0449251793324947,0.0,0.0
0.0524999999999999,0.044912215322256,0.00030517578125,0.0
0.053,0.0448998734354972,0.0006103515625,0.0
0.0534999999999999,0.0448873713612556,0.00030517578125,0.0
0.054,0.044874683022499,0.00030517578125,0.0
0.0544999999999999,0.0448622703552246,0.0,0.0
0.055,0.044849470257759,0.00030517578125,0.0
0.0554999999999999,0.0448372289538383,0.0006103515625,0.0
0.056,0.0448245741426944,0.0006103515625,0.0
0.0564999999999999,0.0448120720684528,0.0006103515625,0.0
0.057,0.0447997488081455,0.00030517578125,0.0
0.0574999999999999,0.0447869449853897,0.0006103515625,0.0
0.058,0.044774767011404,0.00030517578125,0.0
0.0584999999999999,0.0447617433965206,0.00091552734375,0.0
0.059,0.0447495244443416,0.0006103515625,0.0
0.0595,0.0447371080517768,0.00030517578125,0.0
0.06,0.0447245053946971,0.00030517578125,0.0
0.0605,0.0447121262550354,0.00030517578125,0.0
0.061,0.0446992889046669,0.00030517578125,0.0
0.0615,0.0446867011487484,0.00030517578125,0.0
0.062,0.0446742922067642,0.00030517578125,0.0
0.0625,0.0446615926921367,0.0006103515625,0.0
0.0629999999999999,0.0446495153009891,0.00030517578125,0.0
0.0635,0.0446366444230079,0.00030517578125,0.0
0.0639999999999999,0.0446244068443775,0.00030517578125,0.0
0.0645,0.0446114353835582,0.00030517578125,0.0
0.0649999999999999,0.0445989519357681,0.00091552734375,0.0
0.0655,0.0445865914225578,0.001220703125,0.0
0.0659999999999999,0.044573750346899,0.00030517578125,0.0
0.0665,0.0445614084601402,0.0006103515625,0.0
0.0669999999999999,0.0445488318800926,0.00030517578125,0.0
0.0675,0.0445361919701099,0.0006103515625,0.0
0.0679999999999999,0.0445239804685115,0.00030517578125,0.0
0.0685,0.0445112250745296,0.0006103515625,0.0
0.0689999999999999,0.0444988906383514,0.0006103515625,0.0
0.0695,0.0444860234856605,0.0006103515625,0.0
0.0699999999999999,0.0444738790392875,-0.00030517578125,0.0
0.0705,0.044461403042078,0.00030517578125,0.0
0.0709999999999999,0.044448547065258,0.0006103515625,0.0
0.0715,0.0444361343979835,0.0006103515625,0.0
0.0719999999999999,0.0444234684109687,0.00030517578125,0.0
0.0725,0.0444109141826629,0.0,0.0
0.0729999999999999,0.0443985164165496,0.0006103515625,0.0
0.0735,0.0443856082856655,0.00030517578125,0.0
0.0739999999999999,0.0443734638392925,0.0,0.0
0.0745,0.0443607084453105,0.0006103515625,0.0
0.0749999999999999,0.0443486757576465,0.0,0.0
0.0755,0.0443355478346347,0.0006103515625,0.0
0.0759999999999999,0.044322770088911,0.0,0.0
0.0765,0.0443108491599559,0.00091552734375,0.0
0.0769999999999999,0.0442977659404277,0.00030517578125,0.0
0.0775,0.0442855954170227,0.00091552734375,0.0
0.0779999999999999,0.0442727729678154,0.0006103515625,0.0
0.0785,0.0442604124546051,0.00030517578125,0.0
0.0789999999999999,0.0442474409937858,0.00030517578125,0.0
0.0795,0.0442349724471569,0.00091552734375,0.0
0.0799999999999999,0.0442225709557533,0.0006103515625,0.0
0.0805,0.0442098751664161,0.0006103515625,0.0
0.0809999999999999,0.0441975891590118,0.00030517578125,0.0
0.0815,0.0441847890615463,0.00030517578125,0.0
0.0819999999999999,0.0441722348332405,0.00030517578125,0.0
0.0825,0.0441598929464817,0.00030517578125,0.0
0.0829999999999999,0.0441472046077251,0.0,0.0
0.0835,0.0441348664462566,0.00030517578125,0.0
0.0839999999999999,0.0441221483051776,0.0006103515625,0.0
0.0845,0.044109784066677,0.00030517578125,0.0
0.0849999999999999,0.0440969057381153,0.00091552734375,0.0
0.0855,0.0440843440592289,0.0006103515625,0.0
0.0859999999999999,0.0440724082291126,0.00030517578125,0.0
0.0865,0.0440596491098403,0.0006103515625,0.0
0.0869999999999999,0.0440469942986965,0.0,0.0
0.0875,0.0440345890820026,0.00091552734375,0.0
0.0879999999999999,0.044022049754858,0.00030517578125,0.0
0.0885,0.0440094992518425,0.0006103515625,0.0
0.0889999999999999,0.0439967773854732,0.00030517578125,0.0
0.0895,0.0439843721687793,0.00091552734375,0.0
0.0899999999999999,0.0439718216657638,0.00030517578125,0.0
0.0905,0.0439590066671371,0.00030517578125,0.0
0.0909999999999999,0.0439468137919902,0.00030517578125,0.0
0.0915,0.043934091925621,0.0006103515625,0.0
0.0919999999999999,0.0439216680824756,0.00091552734375,0.0
0.0925,0.043908953666687,0.00091552734375,0.0
0.0929999999999999,0.043896559625864,0.0006103515625,0.0
0.0935,0.043883878737688,0.00030517578125,0.0
0.0939999999999999,0.0438715107738971,0.00091552734375,0.0
0.0945,0.0438592992722988,0.0006103515625,0.0
0.0949999999999999,0.0438460372388362,0.0006103515625,0.0
0.0955,0.0438339300453662,0.00030517578125,0.0
0.0959999999999999,0.0438211373984813,0.00030517578125,0.0
0.0965,0.0438084751367569,-0.00030517578125,0.0
0.0969999999999999,0.0437959097325801,0.00030517578125,0.0
0.0975,0.0437835045158863,0.0006103515625,0.0
0.0979999999999999,0.0437710620462894,0.0006103515625,0.0
0.0985,0.0437580607831478,0.00030517578125,0.0
0.0989999999999999,0.0437458232045173,0.00030517578125,0.0
0.0995,0.0437333360314369,0.00030517578125,0.0
0.0999999999999999,0.0437207818031311,0.0006103515625,0.0
0.1005,0.043708436191082,0.0,0.0
0.1009999999999999,0.0436958037316799,0.00030517578125,0.0
0.1015,0.0436829775571823,0.00030517578125,0.0
0.1019999999999999,0.0436703898012638,0.00030517578125,0.0
0.1025,0.0436579845845699,0.0,0.0
0.1029999999999999,0.0436457470059394,0.00091552734375,0.0
0.1035,0.0436325706541538,0.00030517578125,0.0
0.1039999999999999,0.0436204448342323,0.0006103515625,0.0
0.1045,0.0436076335608959,0.0006103515625,0.0
0.1049999999999999,0.0435952171683311,0.0006103515625,0.0
0.1055,0.0435827039182186,0.00030517578125,0.0
0.1059999999999999,0.043570339679718,0.0006103515625,0.0
0.1065,0.043557770550251,0.0006103515625,0.0
0.1069999999999999,0.0435447730123996,0.00030517578125,0.0
0.1075,0.0435326322913169,0.00030517578125,0.0
0.1079999999999999,0.0435195825994014,0.0,0.0
0.1085,0.0435072965919971,0.00030517578125,0.0
0.1089999999999999,0.0434947833418846,0.0006103515625,0.0
0.1095,0.0434819981455802,0.0006103515625,0.0
0.1099999999999999,0.0434694997966289,0.0006103515625,0.0
0.1105,0.0434567667543888,0.0006103515625,0.0
0.1109999999999999,0.0434446074068546,0.0006103515625,0.0
0.1115,0.0434319041669368,0.00030517578125,0.0
0.1119999999999999,0.0434191115200519,0.00030517578125,0.0
0.1125,0.0434068106114864,0.00030517578125,0.0
0.1129999999999999,0.043394386768341,0.0,0.0
0.1135,0.0433817356824874,0.0,0.0
0.1139999999999999,0.0433693639934062,0.0006103515625,0.0
0.1145,0.0433566458523273,0.00030517578125,0.0
0.1149999999999999,0.0433441661298275,0.0,0.0
0.1155,0.0433314964175224,-0.00030517578125,0.0
0.1159999999999999,0.0433192141354084,0.00030517578125,0.0
0.1165,0.0433069244027137,0.0006103515625,0.0
0.1169999999999999,0.04329414665699,0.00030517578125,0.0
0.1175,0.04328203946352,0.0006103515625,0.0
0.118,0.0432688146829605,0.0006103515625,0.0
0.1185,0.0432565286755561,0.00091552734375,0.0
0.119,0.0432438105344772,0.00091552734375,0.0
0.1195,0.0432316251099109,0.00030517578125,0.0
0.12,0.0432190746068954,0.00091552734375,0.0
0.1205,0.0432065837085247,0.00091552734375,0.0
0.121,0.0431939177215099,0.00030517578125,0.0
0.1215,0.0431810729205608,0.0,0.0
0.122,0.0431689955294132,0.00030517578125,0.0
0.1225,0.0431562475860118,0.0006103515625,0.0
0.123,0.0431436784565448,0.00030517578125,0.0
0.1235,0.0431310646235942,0.0006103515625,0.0
0.124,0.0431187078356742,0.00091552734375,0.0
0.1245,0.0431062690913677,0.00091552734375,0.0
0.125,0.0430933721363544,0.0006103515625,0.0
0.1254999999999999,0.0430808775126934,0.00030517578125,0.0
0.126,0.0430685877799987,0.0006103515625,0.0
0.1264999999999999,0.0430559068918228,0.0006103515625,0.0
0.127,0.0430434457957744,0.00030517578125,0.0
0.1274999999999999,0.0430308170616626,0.00091552734375,0.0
0.128,0.0430181324481964,0.00030517578125,0.0
0.1284999999999999,0.0430056899785995,0.0,0.0
0.129,0.0429931320250034,0.0,0.0
0.1294999999999999,0.042980920523405,0.00030517578125,0.0
0.13,0.0429678484797477,0.00030517578125,0.0
0.1304999999999999,0.0429556407034397,0.0006103515625,0.0
0.131,0.0429431274533271,0.0006103515625,0.0
0.1314999999999999,0.0429303497076034,0.00030517578125,0.0
0.132,0.0429180227220058,0.0006103515625,0.0
0.1324999999999999,0.042905043810606,0.0006103515625,0.0
0.133,0.0428929775953292,0.0006103515625,0.0
0.1334999999999999,0.0428802855312824,-0.0006103515625,0.0
0.134,0.0428678467869758,0.00030517578125,0.0
0.1344999999999999,0.0428550131618976,0.0006103515625,0.0
0.135,0.0428426787257194,0.00030517578125,0.0
0.1354999999999999,0.0428303442895412,0.00091552734375,0.0
0.136,0.0428175069391727,0.0006103515625,0.0
0.1364999999999999,0.0428053401410579,0.00030517578125,0.0
0.137,0.0427923910319805,0.00030517578125,0.0
0.1374999999999999,0.0427800826728343,0.00030517578125,0.0
0.138,0.0427672304213047,0.00030517578125,0.0
0.1384999999999999,0.0427547991275787,0.00091552734375,0.0
0.139,0.042742233723402,0.00030517578125,0.0
0.1394999999999999,0.0427295938134193,0.00030517578125,0.0
0.14,0.0427170805633068,0.00030517578125,0.0
0.1404999999999999,0.0427043884992599,0.00091552734375,0.0
0.141,0.0426919758319854,0.00030517578125,0.0
0.1414999999999999,0.042679376900196,0.00030517578125,0.0
0.142,0.0426664054393768,0.00030517578125,0.0
0.1424999999999999,0.0426540561020374,0.001220703125,0.0
0.143,0.0426419340074062,0.0006103515625,0.0
0.1434999999999999,0.0426292344927787,0.00030517578125,0.0
0.144,0.0426166653633117,0.0006103515625,0.0
0.1444999999999999,0.0426038242876529,0.00091552734375,0.0
0.145,0.042591743171215,0.00030517578125,0.0
0.1454999999999999,0.0425788201391696,0.0006103515625,0.0
0.146,0.042566567659378,0.00091552734375,0.0
0.1464999999999999,0.0425539687275886,0.0006103515625,0.0
0.147,0.0425412952899932,0.0006103515625,0.0
0.1474999999999999,0.042528960853815,0.0,0.0
0.148,0.0425164848566055,0.00030517578125,0.0
0.1484999999999999,0.0425038263201713,0.0006103515625,0.0
0.149,0.0424911975860595,0.00091552734375,0.0
0.1494999999999999,0.0424789190292358,0.0006103515625,0.0
0.15,0.0424662046134471,0.0006103515625,0.0
0.1504999999999999,0.0424533635377883,0.0006103515625,0.0
0.151,0.042441438883543,0.00030517578125,0.0
0.1514999999999999,0.0424286164343357,0.00030517578125,0.0
0.152,0.0424158722162246,0.00030517578125,0.0
0.1524999999999999,0.0424035191535949,0.00030517578125,0.0
0.153,0.0423910319805145,0.00030517578125,0.0
0.1534999999999999,0.0423783026635646,0.0006103515625,0.0
0.154,0.0423660427331924,0.00091552734375,0.0
0.1544999999999999,0.0423533953726291,0.0,0.0
0.155,0.0423406660556793,0.0006103515625,0.0
0.1554999999999999,0.0423279926180839,0.0006103515625,0.0
0.156,0.0423157662153244,0.0006103515625,0.0
0.1564999999999999,0.042302768677473,0.0,0.0
0.157,0.0422905460000038,-0.00030517578125,0.0
0.1574999999999999,0.0422779470682144,0.0,0.0
0.158,0.0422653742134571,-0.00030517578125,0.0
0.1584999999999999,0.0422527641057968,0.0,0.0
0.159,0.0422400534152984,0.00030517578125,0.0
0.1594999999999999,0.0422280058264732,0.00030517578125,0.0
0.16,0.0422151237726211,0.0006103515625,0.0
0.1604999999999999,0.0422025471925735,0.0006103515625,0.0
0.161,0.0421903915703296,0.00091552734375,0.0
0.1614999999999999,0.0421773195266723,0.00030517578125,0.0
0.162,0.0421650446951389,-0.00030517578125,0.0
0.1624999999999999,0.0421522036194801,0.00030517578125,0.0
0.163,0.0421399846673011,0.0006103515625,0.0
0.1634999999999999,0.0421268977224826,0.0006103515625,0.0
0.164,0.0421148464083671,0.0006103515625,0.0
0.1644999999999999,0.042102288454771,0.00030517578125,0.0
0.165,0.0420896671712398,0.00030517578125,0.0
0.1654999999999999,0.0420770123600959,0.00091552734375,0.0
0.166,0.0420644134283065,0.0,0.0
0.1664999999999999,0.0420522205531597,0.0006103515625,0.0
0.167,0.0420402586460113,-0.0006103515625,0.0
0.1674999999999999,0.0420286878943443,0.00030517578125,0.0
0.168,0.0420180931687355,0.0,0.0
0.1684999999999999,0.0420087166130542,0.0006103515625,0.0
0.169,0.042001262307167,0.0006103515625,0.0
0.1694999999999999,0.0419963151216506,0.00091552734375,0.0
0.17,0.041993174701929,0.0006103515625,0.0
0.1704999999999999,0.0419937074184417,0.0006103515625,0.0
0.171,0.0419966988265514,0.0006103515625,0.0
0.1714999999999999,0.04200254753232,0.0006103515625,0.0
0.172,0.0420112758874893,0.00030517578125,0.0
0.1725,0.0420230850577354,0.00030517578125,0.0
0.173,0.042037259787321,0.0006103515625,0.0
0.1735,0.0420532785356044,0.00030517578125,0.0
0.174,0.04207244515419,0.00030517578125,0.0
0.1745,0.0420920997858047,0.0006103515625,0.0
0.175,0.0421131737530231,0.0,0.0
0.1755,0.0421358235180377,0.0006103515625,0.0
0.176,0.0421590059995651,0.00030517578125,0.0
0.1765,0.0421827584505081,0.00030517578125,0.0
0.177,0.0422062538564205,0.00030517578125,0.0
0.1775,0.0422310791909694,0.00030517578125,0.0
0.178,0.0422549098730087,0.0006103515625,0.0
0.1785,0.0422791615128517,0.0006103515625,0.0
0.179,0.0423036590218544,0.0,0.0
0.1795,0.042327631264925,0.00030517578125,0.0
0.18,0.0423518605530262,0.0006103515625,0.0
0.1805,0.0423758774995803,0.00091552734375,0.0
0.181,0.0423999615013599,0.0006103515625,0.0
0.1815,0.0424243845045566,0.0006103515625,0.0
0.182,0.0424486957490444,0.00091552734375,0.0
0.1825,0.042472917586565,0.0,0.0
0.183,0.0424966253340244,0.0006103515625,0.0
0.1835,0.042521059513092,0.00030517578125,0.0
0.184,0.0425453893840312,0.00030517578125,0.0
0.1845,0.0425696559250354,0.00030517578125,0.0
0.185,0.0425938367843627,0.0006103515625,0.0
0.1855,0.0426178239285945,0.0006103515625,0.0
0.186,0.0426424592733383,0.0006103515625,0.0
0.1865,0.0426662527024745,0.00030517578125,0.0
0.187,0.0426911376416683,0.0006103515625,0.0
0.1875,0.0427152775228023,0.00030517578125,0.0
0.1879999999999999,0.0427393950521945,0.00030517578125,0.0
0.1885,0.0427634418010711,0.0,0.0
0.1889999999999999,0.0427876785397529,0.0006103515625,0.0
0.1895,0.0428121127188205,0.0006103515625,0.0
