time [s],Lmtc [m],STIM [ ],Fsee [N]
0.0,0.0460066795349121,0.00030517578125,0.08162942418789691
0.0004999999999999,0.0460066571831703,0.0006103515625,0.08161553488889256
0.001,0.0460061281919479,0.00091552734375,0.08128242569783496
0.0014999999999999,0.04600665345788,0.00030517578125,0.08162400272581405
0.002,0.0460062399506568,0.00030517578125,0.08136326052355655
0.0024999999999999,0.0460066869854927,0.0,0.08165317160808461
0.003,0.0460063591599464,0.0,0.08144553656697327
0.0034999999999999,0.0460066981613636,0.00030517578125,0.08166489623590517
0.004,0.046006578952074,0.0006103515625,0.08158865623347412
0.0044999999999999,0.046006366610527,0.0,0.08145512097793269
0.005,0.0460071004927158,0.0006103515625,0.08192465522248375
0.0054999999999999,0.0460066795349121,0.0006103515625,0.08165234405439872
0.006,0.0460066013038158,0.00030517578125,0.08160236728904828
0.0064999999999999,0.0460065603256225,0.0006103515625,0.08157739929232248
0.007,0.0460061728954315,0.0006103515625,0.0813345911880242
0.0074999999999999,0.0460056960582733,0.00030517578125,0.08104322167135398
0.008,0.0460049323737621,0.00091552734375,0.0805807882413368
0.0084999999999999,0.0460037514567375,0.0006103515625,0.07987392076090859
0.009,0.0460003241896629,0.0006103515625,0.07780028231900137
0.0094999999999999,0.0459962710738182,0.00030517578125,0.07543729709032851
0.01,0.0459903813898563,0.0006103515625,0.07208999079312096
0.0104999999999999,0.0459827370941638,0.0006103515625,0.06791323596175955
0.011,0.0459738820791244,0.00030517578125,0.06332377775788066
0.0114999999999999,0.0459637530148029,0.0006103515625,0.05837329288795156
0.012,0.045953094959259,0.00030517578125,0.05353283824530512
0.0124999999999999,0.0459412075579166,0.00030517578125,0.048490706514962054
0.013,0.0459296368062496,0.00030517578125,0.04404641208326332
0.0134999999999999,0.0459180176258087,0.0006103515625,0.039984444770095294
0.014,0.0459056906402111,0.00030517578125,0.03600664313357326
0.0144999999999999,0.0458936505019664,0.0,0.03253644943401331
0.015,0.0458814278244972,0.0006103515625,0.02934296618258355
0.0154999999999999,0.0458694025874137,0.0006103515625,0.02654490427338571
0.016,0.0458576045930385,0.00030517578125,0.02410796976244999
0.0164999999999999,0.0458455830812454,0.0006103515625,0.021843676449273635
0.017,0.0458340793848037,0.00091552734375,0.019969213068812122
0.0174999999999999,0.0458218343555927,0.0006103515625,0.01806005337950798
0.018,0.0458101406693458,0.00030517578125,0.016500441760368016
0.0184999999999999,0.0457986481487751,0.00091552734375,0.015144919872119363
0.019,0.0457865633070468,0.0006103515625,0.013763420817403848
0.0194999999999999,0.0457755252718925,0.0,0.012771324081342282
0.02,0.0457639098167419,0.00030517578125,0.011724569059138037
0.0204999999999999,0.0457519069314003,0.0006103515625,0.010681917812295081
0.021,0.0457407794892787,0.00091552734375,0.009921956251609252
0.0214999999999999,0.0457290671765804,0.00091552734375,0.009096917768094999
0.022,0.045717604458332,0.00030517578125,0.008388772565416177
0.0224999999999999,0.0457058139145374,0.00030517578125,0.0076708631572444405
0.023,0.0456942990422248,0.00030517578125,0.007059440414179882
0.0234999999999999,0.0456828251481056,0.0006103515625,0.006498458174781505
0.024,0.0456710346043109,0.00030517578125,0.005922058412724866
0.0244999999999999,0.0456592701375484,0.00030517578125,0.005391449890555195
0.025,0.0456477850675582,0.00030517578125,0.004940865470148474
0.0254999999999999,0.0456362888216972,0.00091552734375,0.004516589297592755
0.026,0.0456245057284832,0.0,0.004077937156880427
0.0264999999999999,0.0456126704812049,0.00030517578125,0.003661876347383367
0.027,0.0456012040376663,0.0006103515625,0.003320699145208436
0.0274999999999999,0.0455893725156784,0.0,0.0029553375563004325
0.028,0.0455782152712345,0.0006103515625,0.002691448472284981
0.0284999999999999,0.0455663651227951,0.00030517578125,0.0023653714374495746
0.029,0.0455546528100967,0.0006103515625,0.0020764241856081
0.0294999999999999,0.0455432645976543,0.0,0.0018379357564007762
0.03,0.0455313883721828,0.0,0.001570676361659042
0.0304999999999999,0.0455201566219329,0.00030517578125,0.001377369518802768
0.031,0.0455078333616256,0.00030517578125,0.0011134650929924353
0.0314999999999999,0.0454965345561504,0.0006103515625,0.0009466371349108253
0.032,0.0454845800995826,0.00030517578125,0.000751579262393013
0.0324999999999999,0.0454731956124305,-0.00030517578125,0.0006091901043944433
0.033,0.045461680740118,0.0006103515625,0.00047409947014239926
0.0334999999999999,0.0454496890306472,0.001220703125,0.00033503080190020395
0.034,0.0454386323690414,0.0006103515625,0.00025111783982762165
0.0344999999999999,0.045426782220602,0.00030517578125,0.00015523592106241556
0.035,0.045415349304676,0.0006103515625,9.019175714827622e-05
0.0354999999999999,0.0454034432768821,0.0006103515625,3.547877840338507e-05
0.036,0.0453919433057308,0.00030517578125,7.941203842173315e-06
0.0364999999999999,0.0453803241252899,0.0006103515625,0.0
0.037,0.0453684739768505,0.0,0.0
0.0374999999999999,0.0453570820391178,0.0,0.0
0.038,0.0453455448150634,0.0,0.0
0.0384999999999999,0.0453340113162994,0.0006103515625,0.0
0.039,0.045322373509407,0.0006103515625,0.0
0.0394999999999999,0.0453104302287101,0.0,0.0
0.04,0.045299008488655,0.0,0.0
0.0404999999999999,0.0452873073518276,0.0,0.0
0.041,0.0452754385769367,0.0,0.0
0.0414999999999999,0.045264046639204,0.00030517578125,0.0
0.042,0.045252289623022,0.00091552734375,0.0
0.0424999999999999,0.045240718871355,0.00030517578125,0.0
0.043,0.045228973031044,0.00030517578125,0.0
0.0434999999999999,0.0452170819044113,0.0006103515625,0.0
0.044,0.0452058017253875,0.0006103515625,0.0
0.0444999999999999,0.0451939180493354,0.00030517578125,0.0
0.045,0.0451827347278595,0.00030517578125,0.0
0.0454999999999999,0.0451708622276783,0.0,0.0
0.046,0.0451592020690441,0.0,0.0
0.0464999999999999,0.0451475940644741,0.00091552734375,0.0
0.047,0.045135885477066,0.0006103515625,0.0
0.0474999999999999,0.0451246201992034,0.0006103515625,0.0
0.048,0.0451124384999275,0.0,0.0
0.0484999999999999,0.0451012961566448,0.0006103515625,0.0
0.049,0.0450891479849815,0.00091552734375,0.0
0.0494999999999999,0.0450776703655719,0.00091552734375,0.0
0.05,0.0450661033391952,0.0006103515625,0.0
0.0504999999999999,0.0450542196631431,0.0006103515625,0.0
0.051,0.0450430624186992,0.0006103515625,0.0
0.0514999999999999,0.0450311377644538,0.00030517578125,0.0
0.052,0.0450193956494331,0.001220703125,0.0
0.0524999999999999,0.0450078919529914,0.00030517578125,0.0
0.053,0.0449960716068744,0.00030517578125,0.0
0.0534999999999999,0.0449847504496574,0.0006103515625,0.0
0.054,0.0449730083346366,0.0,0.0
0.0544999999999999,0.0449611693620681,0.0006103515625,0.0
0.055,0.044949572533369,0.00030517578125,0.0
0.0554999999999999,0.044938389211893,0.0006103515625,0.0
0.056,0.0449270196259021,0.0006103515625,0.0
0.0564999999999999,0.0449152439832687,0.0,0.0
0.057,0.0449036806821823,0.00030517578125,0.0
0.0574999999999999,0.0448918491601944,0.00091552734375,0.0
0.058,0.0448800884187221,0.00030517578125,0.0
0.0584999999999999,0.044868741184473,0.0,0.0
0.059,0.044856958091259,0.00030517578125,0.0
0.0595,0.0448455736041069,0.00030517578125,0.0
0.06,0.0448334217071533,0.0,0.0
0.0605,0.0448221378028392,0.00091552734375,0.0
0.061,0.044810451567173,-0.00030517578125,0.0
0.0615,0.044798906892538,0.00030517578125,0.0
0.062,0.0447873845696449,0.00030517578125,0.0
0.0625,0.0447757095098495,0.00030517578125,0.0
0.0629999999999999,0.0447643101215362,0.0006103515625,0.0
0.0635,0.0447526536881923,0.00091552734375,0.0
0.0639999999999999,0.0447410680353641,0.00030517578125,0.0
0.0645,0.044729609042406,0.00030517578125,0.0
0.0649999999999999,0.0447177775204181,0.00030517578125,0.0
0.0655,0.0447063706815242,0.0006103515625,0.0
0.0659999999999999,0.0446947813034057,0.0006103515625,0.0
0.0665,0.0446826331317424,0.0006103515625,0.0
0.0669999999999999,0.0446713529527187,0.0006103515625,0.0
0.0675,0.0446595884859561,0.0006103515625,0.0
0.0679999999999999,0.0446481928229332,0.00091552734375,0.0
0.0685,0.0446364842355251,0.0,0.0
0.0689999999999999,0.044624701142311,0.00030517578125,0.0
0.0695,0.0446133315563201,0.001220703125,0.0
0.0699999999999999,0.0446013063192367,0.0006103515625,0.0
0.0705,0.0445900075137615,0.0006103515625,0.0
0.0709999999999999,0.0445782653987407,0.00030517578125,0.0
0.0715,0.0445670671761035,0.00030517578125,0.0
0.0719999999999999,0.0445551238954067,0.00030517578125,0.0
0.0725,0.0445433855056762,0.0006103515625,0.0
0.0729999999999999,0.0445319637656211,0.0,0.0
0.0735,0.0445198155939579,0.0006103515625,0.0
0.0739999999999999,0.0445088967680931,0.0006103515625,0.0
0.0745,0.044496901333332,0.0006103515625,0.0
0.0749999999999999,0.044485367834568,0.0,0.0
0.0755,0.0444735661149024,0.0,0.0
0.0759999999999999,0.0444618463516235,0.00030517578125,0.0
0.0765,0.0444503873586654,0.0006103515625,0.0
0.0769999999999999,0.0444387644529342,0.00030517578125,0.0
0.0775,0.0444272346794605,0.00030517578125,0.0
0.0779999999999999,0.0444151535630226,0.00030517578125,0.0
0.0785,0.0444039553403854,0.0006103515625,0.0
0.0789999999999999,0.0443923361599445,0.0006103515625,0.0
0.0795,0.0443805940449237,0.0006103515625,0.0
0.0799999999999999,0.0443690977990627,0.00030517578125,0.0
0.0805,0.0443572103977203,0.0006103515625,0.0
0.0809999999999999,0.0443456843495368,0.0,0.0
0.0815,0.0443342514336109,0.00030517578125,0.0
0.0819999999999999,0.0443227849900722,-0.00030517578125,0.0
0.0825,0.0443106181919574,0.0006103515625,0.0
0.0829999999999999,0.0442991070449352,0.00030517578125,0.0
0.0835,0.0442874655127525,0.0,0.0
0.0839999999999999,0.0442761108279228,0.00030517578125,0.0
0.0845,0.0442641787230968,0.0006103515625,0.0
0.0849999999999999,0.044252760708332,0.00030517578125,0.0
0.0855,0.0442409664392471,0.0,0.0
0.0859999999999999,0.0442293919622898,0.0,0.0
0.0865,0.044217512011528,0.0006103515625,0.0
0.0869999999999999,0.0442060902714729,0.00030517578125,0.0
0.0875,0.0441944263875484,0.00091552734375,0.0
0.0879999999999999,0.0441826321184635,0.00091552734375,0.0
0.0885,0.0441713035106658,0.0,0.0
0.0889999999999999,0.044159460812807,0.0006103515625,0.0
0.0895,0.0441480502486228,0.0006103515625,0.0
0.0899999999999999,0.0441365092992782,0.00030517578125,0.0
0.0905,0.0441247895359993,0.00030517578125,0.0
0.0909999999999999,0.0441131629049778,0.00030517578125,0.0
0.0915,0.0441014133393764,0.00030517578125,0.0
0.0919999999999999,0.0440900437533855,0.00091552734375,0.0
0.0925,0.0440779514610767,0.00030517578125,0.0
0.0929999999999999,0.0440665856003761,0.00030517578125,0.0
0.0935,0.0440549105405807,0.00091552734375,0.0
0.0939999999999999,0.0440431050956249,0.0006103515625,0.0
0.0945,0.0440315902233123,0.0,0.0
0.0949999999999999,0.044019978493452,0.00030517578125,0.0
0.0955,0.0440083481371402,0.0006103515625,0.0
0.0959999999999999,0.043996799737215,0.00091552734375,0.0
0.0965,0.0439853854477405,0.00030517578125,0.0
0.0969999999999999,0.0439738519489765,0.0006103515625,0.0
0.0975,0.043962076306343,0.0006103515625,0.0
0.0979999999999999,0.043950580060482,0.0,0.0
0.0985,0.043938785791397,0.0006103515625,0.0
0.0989999999999999,0.0439272075891494,0.0006103515625,0.0
0.0995,0.0439157336950302,0.0,0.0
0.0999999999999999,0.0439040623605251,0.00030517578125,0.0
0.1005,0.0438925959169864,0.0006103515625,0.0
0.1009999999999999,0.0438806228339672,0.00030517578125,0.0
0.1015,0.0438689216971397,0.00091552734375,0.0
0.1019999999999999,0.0438575036823749,0.0006103515625,0.0
0.1025,0.0438456162810325,0.0006103515625,0.0
0.1029999999999999,0.0438340716063976,0.0,0.0
0.1035,0.0438225045800209,0.00030517578125,0.0
0.1039999999999999,0.043810911476612,0.0006103515625,0.0
0.1045,0.0437993705272674,0.0006103515625,0.0
0.1049999999999999,0.0437876880168914,0.0006103515625,0.0
0.1055,0.043776050209999,0.0006103515625,0.0
0.1059999999999999,0.0437640585005283,0.00030517578125,0.0
0.1065,0.0437528043985366,0.0006103515625,0.0
0.1069999999999999,0.0437413305044174,0.0,0.0
0.1075,0.0437296889722347,0.00091552734375,0.0
0.1079999999999999,0.0437181033194065,0.0006103515625,0.0
0.1085,0.0437065735459327,-0.00030517578125,0.0
0.1089999999999999,0.0436946116387844,0.0,0.0
0.1095,0.0436829067766666,0.00030517578125,0.0
0.1099999999999999,0.0436713062226772,0.00030517578125,0.0
0.1105,0.0436597801744937,0.00030517578125,0.0
0.1109999999999999,0.0436479151248931,0.0006103515625,0.0
0.1115,0.0436364784836769,0.0,0.0
0.1119999999999999,0.0436247028410434,0.0006103515625,0.0
0.1125,0.0436127893626689,0.0006103515625,0.0
0.1129999999999999,0.0436016544699668,0.0,0.0
0.1135,0.0435897409915924,0.00030517578125,0.0
0.1139999999999999,0.0435785874724388,0.00030517578125,0.0
0.1145,0.0435665436089038,0.0,0.0
0.1149999999999999,0.0435549318790435,0.0,0.0
0.1155,0.0435435771942138,0.0,0.0
0.1159999999999999,0.0435317531228065,0.0006103515625,0.0
0.1165,0.043520487844944,0.0006103515625,0.0
0.1169999999999999,0.0435083545744419,0.0,0.0
0.1175,0.0434967726469039,0.00030517578125,0.0
0.118,0.0434850379824638,0.0006103515625,0.0
0.1185,0.0434735044836998,0.00091552734375,0.0
0.119,0.043461974710226,0.0006103515625,0.0
0.1195,0.0434499494731426,0.0006103515625,0.0
0.12,0.0434388294816017,0.00030517578125,0.0
0.1205,0.0434268899261951,0.00030517578125,0.0
0.121,0.0434152036905288,0.0006103515625,0.0
0.1215,0.043403722345829,0.0,0.0
0.122,0.0433920845389366,0.0006103515625,0.0
0.1225,0.0433807373046875,0.0006103515625,0.0
0.123,0.0433688946068286,-0.00030517578125,0.0
0.1235,0.0433575958013534,0.0006103515625,0.0
0.124,0.04334557056427,0.00091552734375,0.0
0.1245,0.0433341264724731,0.0006103515625,0.0
0.125,0.0433226265013217,0.0006103515625,0.0
0.1254999999999999,0.0433111004531383,0.00030517578125,0.0
0.126,0.0432991608977317,0.0006103515625,0.0
0.1264999999999999,0.0432874895632267,0.0006103515625,0.0
0.127,0.0432757139205932,0.00030517578125,0.0
0.1274999999999999,0.0432643145322799,0.00091552734375,0.0
0.128,0.0432527884840965,0.0006103515625,0.0
0.1284999999999999,0.0432410091161727,0.00030517578125,0.0
0.129,0.0432295873761177,0.00030517578125,0.0
0.1294999999999999,0.0432180762290954,-0.00030517578125,0.0
0.13,0.0432064570486545,0.00030517578125,0.0
0.1304999999999999,0.0431950464844703,0.0,0.0
0.131,0.0431835353374481,0.0,0.0
0.1314999999999999,0.0431713759899139,0.00030517578125,0.0
0.132,0.043160080909729,0.0006103515625,0.0
0.1324999999999999,0.0431484021246433,0.00030517578125,0.0
0.133,0.0431365482509136,0.00091552734375,0.0
0.1334999999999999,0.0431251041591167,0.00091552734375,0.0
0.134,0.0431133024394512,0.0006103515625,0.0
0.1344999999999999,0.0431018136441707,0.00030517578125,0.0
0.135,0.0430900901556015,0.0,0.0
0.1354999999999999,0.0430785678327083,0.0006103515625,0.0
0.136,0.0430669598281383,0.00030517578125,0.0
0.1364999999999999,0.0430551804602146,0.0006103515625,0.0
0.137,0.0430438034236431,0.0006103515625,0.0
0.1374999999999999,0.0430319607257843,0.00030517578125,0.0
0.138,0.0430203825235366,0.00030517578125,0.0
0.1384999999999999,0.0430089943110942,0.00030517578125,0.0
0.139,0.0429970659315586,0.00030517578125,0.0
0.1394999999999999,0.0429860278964042,0.00030517578125,0.0
0.14,0.0429739616811275,0.0,0.0
0.1404999999999999,0.042962297797203,0.0006103515625,0.0
0.141,0.0429507233202457,0.00030517578125,0.0
0.1414999999999999,0.0429389737546443,0.00091552734375,0.0
0.142,0.0429275631904602,0.00030517578125,0.0
0.1424999999999999,0.0429154112935066,0.0006103515625,0.0
0.143,0.0429042391479015,0.00030517578125,0.0
0.1434999999999999,0.0428921841084957,0.00030517578125,0.0
0.144,0.0428808443248271,0.0,0.0
0.1444999999999999,0.0428691655397415,0.0006103515625,0.0
0.145,0.0428573377430439,0.00030517578125,0.0
0.1454999999999999,0.0428460128605365,0.00030517578125,0.0
0.146,0.0428340844810009,0.00030517578125,0.0
0.1464999999999999,0.0428227633237838,0.00030517578125,0.0
0.147,0.0428111217916011,0.0,0.0
0.1474999999999999,0.042799424380064,0.00030517578125,0.0
0.148,0.0427878908812999,0.0,0.0
0.1484999999999999,0.042776234447956,0.0,0.0
0.149,0.0427648574113845,0.00030517578125,0.0
0.1494999999999999,0.0427529253065586,0.0,0.0
0.15,0.0427413806319236,0.0,0.0
0.1504999999999999,0.0427296608686447,0.0,0.0
0.151,0.0427181497216224,0.0,0.0
0.1514999999999999,0.0427063554525375,0.00030517578125,0.0
0.152,0.0426948517560958,0.0,0.0
0.1524999999999999,0.0426830686628818,0.00030517578125,0.0
0.153,0.0426716282963752,0.00030517578125,0.0
0.1534999999999999,0.0426598601043224,0.00030517578125,0.0
0.154,0.0426484607160091,0.0,0.0
0.1544999999999999,0.0426363386213779,0.0,0.0
0.155,0.0426247641444206,0.00030517578125,0.0
0.1554999999999999,0.0426132902503013,0.0006103515625,0.0
0.156,0.0426014475524425,0.00030517578125,0.0
0.1564999999999999,0.0425899811089038,0.0,0.0
0.157,0.0425783731043338,0.0006103515625,0.0
0.1574999999999999,0.0425671748816967,0.00030517578125,0.0
0.158,0.0425551421940326,0.00030517578125,0.0
0.1584999999999999,0.0425437539815902,0.0006103515625,0.0
0.159,0.0425323285162448,0.00030517578125,0.0
0.1594999999999999,0.042520023882389,-0.00030517578125,0.0
0.16,0.0425085090100765,0.0006103515625,0.0
0.1604999999999999,0.0424969010055065,0.0,0.0
0.161,0.0424854420125484,0.00030517578125,0.0
0.1614999999999999,0.0424737371504306,0.00030517578125,0.0
0.162,0.04246237128973,0.00030517578125,0.0
0.1624999999999999,0.0424506552517414,0.0,0.0
0.163,0.042438980191946,0.00091552734375,0.0
0.1634999999999999,0.0424274541437625,0.00030517578125,0.0
0.164,0.0424158126115798,0.0006103515625,0.0
0.1644999999999999,0.0424041599035263,0.00030517578125,0.0
0.165,0.04239247366786,0.0006103515625,0.0
0.1654999999999999,0.0423808991909027,0.0006103515625,0.0
0.166,0.04236925765872,0.00030517578125,0.0
0.1664999999999999,0.0423574931919574,0.0006103515625,0.0
0.167,0.0423460081219673,0.0006103515625,0.0
0.1674999999999999,0.0423345826566219,0.00091552734375,0.0
0.168,0.0423225760459899,0.0006103515625,0.0
0.1684999999999999,0.0423114225268363,0.0006103515625,0.0
0.169,0.0422995053231716,0.00091552734375,0.0
0.1694999999999999,0.0422881878912448,0.0006103515625,0.0
0.17,0.0422761067748069,0.0006103515625,0.0
0.1704999999999999,0.0422645024955272,0.00030517578125,0.0
0.171,0.042253240942955,0.0006103515625,0.0
0.1714999999999999,0.0422410033643245,0.00030517578125,0.0
0.172,0.0422297716140747,0.00091552734375,0.0
0.1725,0.0422181263566017,0.0006103515625,0.0
0.173,0.0422063171863555,0.0006103515625,0.0
0.1735,0.0421949177980423,-0.00030517578125,0.0
0.174,0.042183194309473,0.00030517578125,0.0
0.1745,0.042171586304903,0.00030517578125,0.0
0.175,0.0421597771346569,0.0006103515625,0.0
0.1755,0.0421484485268592,0.00091552734375,0.0
0.176,0.0421364903450012,0.0006103515625,0.0
0.1765,0.0421242974698543,-0.00030517578125,0.0
0.177,0.0421132668852806,0.0006103515625,0.0
0.1775,0.0421014837920665,0.0006103515625,0.0
0.178,0.0420893914997577,0.0,0.0
0.1785,0.042078424245119,0.0006103515625,0.0
0.179,0.0420667044818401,0.0006103515625,0.0
0.1795,0.0420550741255283,0.00030517578125,0.0
0.18,0.0420434847474098,0.00030517578125,0.0
0.1805,0.0420325137674808,0.00030517578125,0.0
0.181,0.042021881788969,0.00030517578125,0.0
0.1815,0.0420124009251594,0.0006103515625,0.0
0.182,0.0420045219361782,0.0006103515625,0.0
0.1825,0.041997842490673,0.00030517578125,0.0
0.183,0.041994322091341,0.00091552734375,0.0
0.1835,0.0419923514127731,0.00030517578125,0.0
0.184,0.0419935062527656,0.00030517578125,0.0
0.1845,0.0419959872961044,0.00030517578125,0.0
0.185,0.0419998131692409,-0.00030517578125,0.0
0.1855,0.0420056320726871,0.0,0.0
0.186,0.0420115105807781,0.0006103515625,0.0
0.1865,0.0420183464884758,0.0006103515625,0.0
0.187,0.0420248322188854,0.00030517578125,0.0
0.1875,0.0420311838388443,0.0006103515625,0.0
0.1879999999999999,0.0420378781855106,0.0,0.0
0.1885,0.0420440509915351,0.00091552734375,0.0
0.1889999999999999,0.0420503430068492,0.00091552734375,0.0
0.1895,0.0420558378100395,0.0006103515625,0.0
0.1899999999999999,0.0420622713863849,0.00030517578125,0.0
0.1905,0.0420683212578296,0.0006103515625,0.0
