time [s],Lmtc [m],STIM [ ],Fsee [N]
0.0,0.0460067763924598,0.00030517578125,0.0816325373219463
0.0004999999999999,0.0460066087543964,0.00091552734375,0.0815266246635524
0.001,0.0460066720843315,0.0006103515625,0.08156962369388568
0.0014999999999999,0.046006690710783,0.0006103515625,0.08158316424997683
0.002,0.0460066609084606,0.0006103515625,0.08156572944114562
0.0024999999999999,0.0460068061947822,0.00091552734375,0.08165944785597541
0.003,0.0460065938532352,0.0006103515625,0.08152459533842234
0.0034999999999999,0.0460066758096218,0.0,0.08157935981230577
0.004,0.0460067354142665,0.001220703125,0.08161842677903171
0.0044999999999999,0.0460070520639419,0.0006103515625,0.08182010029079854
0.005,0.0460066944360733,0.0006103515625,0.08159001187401219
0.0054999999999999,0.0460066869854927,0.0,0.08158649842402708
0.006,0.0460066385567188,0.0006103515625,0.0815572140912385
0.0064999999999999,0.0460060983896255,0.00030517578125,0.08121884787367394
0.007,0.0460059382021427,0.0006103515625,0.08113010805750073
0.0074999999999999,0.0460052676498889,0.00091552734375,0.0807239138409384
0.008,0.0460037253797054,0.0006103515625,0.07978547076787251
0.0084999999999999,0.0460018068552017,0.0,0.07864822934755084
0.009,0.0459979474544525,0.00091552734375,0.07636347664250945
0.0094999999999999,0.0459933616220951,0.0,0.07374666884192096
0.01,0.0459874048829078,0.0,0.07045111841214247
0.0104999999999999,0.0459807738661766,0.00091552734375,0.06695179921055593
0.011,0.0459733791649341,0.0006103515625,0.06323348300884488
0.0114999999999999,0.0459655001759529,-0.00030517578125,0.059489641965065544
0.012,0.045957438647747,0.00030517578125,0.05589950048347583
0.0124999999999999,0.0459489524364471,0.0006103515625,0.052342178408094575
0.013,0.0459405295550823,0.00091552734375,0.04907148980750385
0.0134999999999999,0.0459322780370712,0.00091552734375,0.04611979306765688
0.014,0.045924037694931,0.0006103515625,0.04338904999552521
0.0144999999999999,0.045915737748146,0.0006103515625,0.04083403826958518
0.015,0.0459073595702648,0.00030517578125,0.038437198339989875
0.0154999999999999,0.0458990819752216,0.00030517578125,0.03626473314933547
0.016,0.0458905361592769,0.0006103515625,0.0341487294195584
0.0164999999999999,0.0458821654319763,0.00030517578125,0.032265511706033825
0.017,0.0458744503557682,0.0,0.030777416263320114
0.0174999999999999,0.0458658225834369,0.00091552734375,0.02905620535803508
0.018,0.0458575002849102,0.0006103515625,0.027579961428250206
0.0184999999999999,0.0458498708903789,0.00091552734375,0.026460049545126423
0.019,0.0458412878215312,0.00030517578125,0.025086719994896086
0.0194999999999999,0.0458333306014537,0.0,0.02402863561735715
0.02,0.0458251498639583,0.00030517578125,0.022970092178979773
0.0204999999999999,0.0458172596991062,0.0006103515625,0.022079965376547935
0.021,0.0458091422915458,0.00091552734375,0.02117644299722433
0.0214999999999999,0.0458007305860519,0.0006103515625,0.020242190762604768
0.022,0.0457929298281669,0.0006103515625,0.019558043311385553
0.0224999999999999,0.0457843653857708,0.00030517578125,0.018686708656193936
0.023,0.0457762628793716,0.0006103515625,0.01800944408953317
0.0234999999999999,0.0457684695720672,0.0006103515625,0.017461575481128266
0.024,0.0457603558897972,0.00030517578125,0.01685199539273046
0.0244999999999999,0.0457524135708808,-0.0006103515625,0.01632491827991168
0.025,0.0457442104816436,0.0006103515625,0.01575388384992268
0.0254999999999999,0.0457361340522766,0.00030517578125,0.015248420216356945
0.026,0.0457281321287155,0.0,0.014788480570835512
0.0264999999999999,0.0457197092473506,0.00030517578125,0.014240690535815514
0.027,0.0457118935883045,0.0006103515625,0.013878397732485408
0.0274999999999999,0.0457038208842277,0.00030517578125,0.01346492800764769
0.028,0.0456955730915069,0.00030517578125,0.013026050185205884
0.0284999999999999,0.0456879287958145,0.0006103515625,0.012755989705443995
0.029,0.0456794835627079,0.00030517578125,0.012298115331078495
0.0294999999999999,0.0456714518368244,0.00030517578125,0.011961108000039926
0.03,0.0456635393202304,0.0006103515625,0.01166444329857571
0.0304999999999999,0.0456555411219596,0.0006103515625,0.011357007665249427
0.031,0.0456474907696247,0.0006103515625,0.011047701507072741
0.0314999999999999,0.0456392057240009,0.00030517578125,0.010695523979130355
0.032,0.0456316992640495,0.00091552734375,0.010531253405917564
0.0324999999999999,0.0456231981515884,0.0,0.01014687920862959
0.033,0.0456151701509952,0.0006103515625,0.009882169448620637
0.0334999999999999,0.0456070937216281,0.0006103515625,0.009614483148765986
0.034,0.0455988608300685,0.0006103515625,0.009321486871466193
0.0344999999999999,0.0455910861492157,0.0006103515625,0.009134010185542765
0.035,0.0455825850367546,0.00030517578125,0.00879888727367781
0.0354999999999999,0.0455746315419673,0.0006103515625,0.008588147389051727
0.036,0.0455663986504077,0.00030517578125,0.008325541377185842
0.0364999999999999,0.0455584004521369,0.00091552734375,0.008117168968732987
0.037,0.0455506108701229,0.00030517578125,0.007953681746663213
0.0374999999999999,0.0455421656370162,0.0,0.0076650131615818495
0.038,0.0455347374081611,0.0006103515625,0.007579885376966444
0.0384999999999999,0.0455265529453754,0.00091552734375,0.007348744857969337
0.039,0.0455181784927845,0.001220703125,0.007088933403493302
0.0394999999999999,0.0455100387334823,0.0,0.006880563222068015
0.04,0.0455018691718578,0.00030517578125,0.006671934009255276
0.0404999999999999,0.0454940199851989,0.0006103515625,0.00652519875228823
0.041,0.0454859808087348,0.00091552734375,0.006346304501466783
0.0414999999999999,0.0454779006540775,0.00091552734375,0.006163834397524824
0.042,0.0454696789383888,0.0006103515625,0.005961164941324696
0.0424999999999999,0.0454614348709583,0.00030517578125,0.005760162211250484
0.043,0.0454535521566867,0.0,0.00562407310694156
0.0434999999999999,0.0454456955194473,0.001220703125,0.005493487057241144
0.044,0.045437254011631,0.0006103515625,0.005270067917343573
0.0444999999999999,0.0454292744398117,0.00030517578125,0.005126856068571635
0.045,0.0454210042953491,0.00030517578125,0.0049406684891609345
0.0454999999999999,0.0454132333397865,0.00030517578125,0.004835846218029069
0.046,0.0454047285020351,0.00091552734375,0.004620501714522498
0.0464999999999999,0.0453966297209262,0.00091552734375,0.004472492592834768
0.047,0.0453889146447181,0.0006103515625,0.004383275038308141
0.0474999999999999,0.0453804209828376,0.0006103515625,0.004181924171454453
0.048,0.0453724265098571,0.0006103515625,0.004057650526825848
0.0484999999999999,0.0453644767403602,0.00030517578125,0.003941434793231409
0.049,0.0453563295304775,0.00030517578125,0.0037998309695603323
0.0494999999999999,0.0453482680022716,0.00030517578125,0.003672985219379856
0.05,0.0453402251005172,0.00030517578125,0.0035510612852108717
0.0504999999999999,0.0453325770795345,0.00030517578125,0.003482718969614273
0.051,0.045324046164751,0.0006103515625,0.0033007249939340827
0.0514999999999999,0.045315932482481,0.001220703125,0.0031774485672182587
0.052,0.0453082621097564,0.00091552734375,0.0031113833859583405
0.0524999999999999,0.04529969394207,0.00091552734375,0.0029364118774900944
0.053,0.0452918447554111,0.0,0.0028528136717736545
0.0534999999999999,0.0452836044132709,0.0006103515625,0.0027246254463413645
0.054,0.0452757030725479,0.0006103515625,0.0026385965928659347
0.0544999999999999,0.0452676191926002,0.00091552734375,0.002533362320644249
0.055,0.0452594012022018,0.0006103515625,0.002415998975178988
0.0554999999999999,0.0452514067292213,0.00030517578125,0.0023259008566188285
0.056,0.0452434048056602,0.00030517578125,0.0022367952723032114
0.0564999999999999,0.045234989374876,0.0006103515625,0.002107267296507182
0.057,0.0452273674309253,0.00091552734375,0.0020617565358484703
0.0574999999999999,0.0452189221978187,0.0006103515625,0.0019348632126378559
0.058,0.0452109165489673,0.00091552734375,0.001854843040622413
0.0584999999999999,0.0452027879655361,0.0006103515625,0.0017651557139888503
0.059,0.0451946184039115,0.0006103515625,0.0016743409003164768
0.0595,0.045186661183834,0.0,0.0016051702920915044
0.06,0.0451785139739513,0.001220703125,0.0015210017640707658
0.0605,0.0451707430183887,0.00030517578125,0.0014713474746705793
0.061,0.0451622270047664,0.0006103515625,0.001360567674588538
0.0615,0.0451542846858501,0.0006103515625,0.0013005853462629256
0.062,0.0451463609933853,0.00030517578125,0.001243450751043143
0.0625,0.0451382063329219,0.001220703125,0.0011700250843655743
0.0629999999999999,0.0451301038265228,0.0006103515625,0.001103044349062994
0.0635,0.0451220571994781,0.0006103515625,0.0010423419139137518
0.0639999999999999,0.0451136156916618,0.0006103515625,0.0009562378509688369
0.0645,0.045105542987585,0.0006103515625,0.0008988972409357324
0.0649999999999999,0.0450975224375724,0.00091552734375,0.0008469275954670006
0.0655,0.045089453458786,0.0006103515625,0.0007936545623261024
0.0659999999999999,0.0450810082256794,0.0,0.000719702553756701
0.0665,0.0450731292366981,0.0,0.0006824110109980707
0.0669999999999999,0.0450651124119758,0.00030517578125,0.0006383960976904454
0.0675,0.0450566820800304,0.0006103515625,0.0005737663491348088
0.0679999999999999,0.0450486168265342,0.00091552734375,0.0005316195413903003
0.0685,0.0450406782329082,0.00030517578125,0.000497561303948913
0.0689999999999999,0.0450322851538658,0.0,0.00044318608206667315
0.0695,0.045024286955595,0.00030517578125,0.000409949450315969
0.0699999999999999,0.0450160503387451,0.00030517578125,0.0003679081405244409
0.0705,0.0450084023177623,0.0006103515625,0.0003526230778222325
0.0709999999999999,0.0450001247227191,0.00030517578125,0.0003123811764272583
0.0715,0.0449920296669006,0.0006103515625,0.0002816390117278243
0.0719999999999999,0.0449843034148216,0.00091552734375,0.00026594494856189364
0.0725,0.0449757613241672,0.00030517578125,0.00022279670106382655
0.0729999999999999,0.0449675172567367,0.00030517578125,0.00019289629393560214
0.0735,0.0449600033462047,0.00091552734375,0.00018698785254398108
0.0739999999999999,0.0449517704546451,0.00091552734375,0.00016024657175912153
0.0745,0.0449439249932765,0.00030517578125,0.00014600815395652924
0.0749999999999999,0.0449358858168125,0.00030517578125,0.00012758817715362788
0.0755,0.0449275523424148,0.00030517578125,0.00010371039665578218
0.0759999999999999,0.0449196584522724,0.0006103515625,9.158369687193468e-05
0.0765,0.0449112989008426,0.00091552734375,7.12145226231929e-05
0.0769999999999999,0.0449033416807651,0.0006103515625,6.026620972266432e-05
0.0775,0.044895265251398,0.00030517578125,4.8400552179742764e-05
0.0779999999999999,0.0448874123394489,0.0,4.101370214919988e-05
0.0785,0.0448792204260826,0.0006103515625,2.99662180325826e-05
0.0789999999999999,0.0448710992932319,0.00030517578125,2.140174521205791e-05
0.0795,0.0448632687330246,0.0006103515625,1.6857077853630408e-05
0.0799999999999999,0.044855061918497,0.00030517578125,1.0019111906812073e-05
0.0805,0.0448469668626785,0.00030517578125,5.530455313862325e-06
0.0809999999999999,0.0448390506207942,0.0006103515625,3.025676681525071e-06
0.0815,0.0448306202888488,0.00030517578125,3.0464839905989257e-07
0.0819999999999999,0.0448225103318691,0.0006103515625,0.0
0.0825,0.0448141358792781,0.0006103515625,0.0
0.0829999999999999,0.0448064021766185,0.0006103515625,0.0
0.0835,0.0447986498475074,0.0,0.0
0.0839999999999999,0.0447902642190456,0.00091552734375,0.0
0.0845,0.0447822958230972,0.0,0.0
0.0849999999999999,0.0447741262614727,0.0006103515625,0.0
0.0855,0.0447663106024265,0.00030517578125,0.0
0.0859999999999999,0.0447582229971885,0.00091552734375,0.0
0.0865,0.0447499118745327,0.0,0.0
0.0869999999999999,0.0447421893477439,0.0006103515625,0.0
0.0875,0.0447340793907642,0.00030517578125,0.0
0.0879999999999999,0.0447259880602359,0.0006103515625,0.0
0.0885,0.0447180084884166,0.00091552734375,0.0
0.0889999999999999,0.0447094738483428,0.00091552734375,0.0
0.0895,0.0447018481791019,0.0006103515625,0.0
0.0899999999999999,0.0446935631334781,0.0006103515625,0.0
0.0905,0.0446855574846267,0.00030517578125,0.0
0.0909999999999999,0.0446772873401641,0.0006103515625,0.0
0.0915,0.0446690469980239,0.0006103515625,0.0
0.0919999999999999,0.0446614772081375,0.00091552734375,0.0
0.0925,0.0446527302265167,0.00091552734375,0.0
0.0929999999999999,0.0446450337767601,0.0006103515625,0.0
0.0935,0.0446369349956512,0.00091552734375,0.0
0.0939999999999999,0.0446287579834461,0.0006103515625,0.0
0.0945,0.0446209236979484,0.00030517578125,0.0
0.0949999999999999,0.0446126610040664,0.0006103515625,0.0
0.0955,0.0446045584976673,0.0006103515625,0.0
0.0959999999999999,0.0445965565741062,0.00030517578125,0.0
0.0965,0.0445881746709346,0.00030517578125,0.0
0.0969999999999999,0.0445803739130497,0.0,0.0
0.0975,0.0445719435811042,0.0,0.0
0.0979999999999999,0.0445641949772834,0.0006103515625,0.0
0.0985,0.0445560179650783,0.0006103515625,0.0
0.0989999999999999,0.0445477552711963,0.0006103515625,0.0
0.0995,0.0445399582386016,0.00030517578125,0.0
0.0999999999999999,0.0445317029953002,0.00030517578125,0.0
0.1005,0.0445238910615444,0.0006103515625,0.0
0.1009999999999999,0.0445156097412109,0.0,0.0
0.1015,0.0445076674222946,0.00091552734375,0.0
0.1019999999999999,0.0444994829595088,0.0006103515625,0.0
0.1025,0.0444913320243358,0.00091552734375,0.0
0.1029999999999999,0.0444835424423217,0.00091552734375,0.0
0.1035,0.0444753803312778,0.00030517578125,0.0
0.1039999999999999,0.0444670729339122,0.0,0.0
0.1045,0.0444592908024787,0.0,0.0
0.1049999999999999,0.044451143592596,0.0006103515625,0.0
0.1055,0.0444429591298103,0.0006103515625,0.0
0.1059999999999999,0.044434830546379,0.0006103515625,0.0
0.1065,0.0444266200065612,0.00030517578125,0.0
0.1069999999999999,0.0444187857210636,0.0,0.0
0.1075,0.0444107055664062,0.00030517578125,0.0
0.1079999999999999,0.0444025956094265,0.0006103515625,0.0
0.1085,0.0443943329155445,0.0006103515625,0.0
0.1089999999999999,0.0443861410021781,0.0006103515625,0.0
0.1095,0.0443783327937126,0.00030517578125,0.0
0.1099999999999999,0.0443703755736351,0.00030517578125,0.0
0.1105,0.0443622283637523,0.00030517578125,0.0
0.1109999999999999,0.0443539060652256,0.00030517578125,0.0
0.1115,0.044346060603857,0.0006103515625,0.0
0.1119999999999999,0.0443380065262317,0.0,0.0
0.1125,0.0443296507000923,0.0006103515625,0.0
0.1129999999999999,0.044321808964014,0.0006103515625,0.0
0.1135,0.0443137548863887,0.00030517578125,0.0
0.1139999999999999,0.0443052239716053,0.00030517578125,0.0
0.1145,0.0442974045872688,0.0006103515625,0.0
0.1149999999999999,0.0442892014980316,0.0006103515625,0.0
0.1155,0.0442811846733093,0.00030517578125,0.0
0.1159999999999999,0.044272631406784,0.0006103515625,0.0
0.1165,0.0442648828029632,0.00030517578125,0.0
0.1169999999999999,0.0442570596933364,0.00091552734375,0.0
0.1175,0.0442486777901649,0.0006103515625,0.0
0.118,0.044240828603506,0.00030517578125,0.0
0.1185,0.0442324355244636,0.0,0.0
0.119,0.0442242100834846,0.00030517578125,0.0
0.1195,0.0442164577543735,0.00030517578125,0.0
0.12,0.0442083999514579,0.0006103515625,0.0
0.1205,0.0442001074552536,0.0006103515625,0.0
0.121,0.0441918186843395,0.0006103515625,0.0
0.1215,0.0441839583218097,0.00091552734375,0.0
0.122,0.0441757291555404,0.0006103515625,0.0
0.1225,0.0441675446927547,0.0006103515625,0.0
0.123,0.044159673154354,0.00030517578125,0.0
0.1235,0.0441517494618892,0.001220703125,0.0
0.124,0.044143795967102,0.00030517578125,0.0
0.1245,0.0441357232630252,0.0,0.0
0.125,0.0441272109746933,0.00030517578125,0.0
0.1254999999999999,0.0441191755235195,0.0006103515625,0.0
0.126,0.0441110767424106,0.00091552734375,0.0
0.1264999999999999,0.0441034696996212,0.00030517578125,0.0
0.127,0.0440951772034168,0.0,0.0
0.1274999999999999,0.0440870486199855,-0.00030517578125,0.0
0.128,0.0440794043242931,0.0006103515625,0.0
0.1284999999999999,0.0440710000693798,0.00030517578125,0.0
0.129,0.0440630502998828,0.00030517578125,0.0
0.1294999999999999,0.0440548472106456,0.001220703125,0.0
0.13,0.044046826660633,0.0006103515625,0.0
0.1304999999999999,0.0440388731658458,0.00091552734375,0.0
0.131,0.0440302677452564,0.0006103515625,0.0
0.1314999999999999,0.044022724032402,0.00030517578125,0.0
0.132,0.0440143086016178,0.0,0.0
0.1324999999999999,0.0440061949193477,0.00030517578125,0.0
0.133,0.0439982376992702,0.0006103515625,0.0
0.1334999999999999,0.0439899750053882,0.00030517578125,0.0
0.134,0.0439822226762771,0.00091552734375,0.0
0.1344999999999999,0.0439742133021354,0.0006103515625,0.0
0.135,0.0439657941460609,0.00091552734375,0.0
0.1354999999999999,0.0439580343663692,0.00091552734375,0.0
0.136,0.0439496338367462,0.00030517578125,0.0
0.1364999999999999,0.0439418070018291,0.0,0.0
0.137,0.0439336709678173,0.00030517578125,0.0
0.1374999999999999,0.0439251512289047,0.00030517578125,0.0
0.138,0.0439179092645645,0.0006103515625,0.0
0.1384999999999999,0.043909203261137,0.00030517578125,0.0
0.139,0.0439013540744781,0.0006103515625,0.0
0.1394999999999999,0.0438933037221431,0.0006103515625,0.0
0.14,0.0438851304352283,0.0006103515625,0.0
0.1404999999999999,0.0438772700726985,0.0,0.0
0.141,0.0438689738512039,0.0006103515625,0.0
0.1414999999999999,0.0438609756529331,0.0006103515625,0.0
0.142,0.0438524894416332,0.00091552734375,0.0
0.1424999999999999,0.0438445731997489,0.0006103515625,0.0
0.143,0.043836560100317,0.00030517578125,0.0
0.1434999999999999,0.0438281893730163,0.0006103515625,0.0
0.144,0.0438201650977134,0.0006103515625,0.0
0.1444999999999999,0.0438120923936367,0.0,0.0
0.145,0.0438039451837539,0.0006103515625,0.0
0.1454999999999999,0.0437959842383861,0.00091552734375,0.0
0.146,0.0437877923250198,0.0006103515625,0.0
0.1464999999999999,0.0437799878418445,0.00030517578125,0.0
0.147,0.0437719114124774,0.0006103515625,0.0
0.1474999999999999,0.0437635481357574,0.0006103515625,0.0
0.148,0.0437556244432926,0.00030517578125,0.0
0.1484999999999999,0.0437476187944412,0.00030517578125,0.0
0.149,0.0437394119799137,0.00030517578125,0.0
0.1494999999999999,0.0437315329909324,0.00030517578125,0.0
0.15,0.0437233708798885,0.00091552734375,0.0
0.1504999999999999,0.0437151230871677,0.00091552734375,0.0
0.151,0.0437071435153484,0.0006103515625,0.0
0.1514999999999999,0.0436989851295948,0.00030517578125,0.0
0.152,0.0436907745897769,0.00030517578125,0.0
0.1524999999999999,0.0436828918755054,0.0006103515625,0.0
0.153,0.043675024062395,0.0006103515625,0.0
0.1534999999999999,0.0436669178307056,0.00030517578125,0.0
0.154,0.0436588786542415,0.00030517578125,0.0
0.1544999999999999,0.043650634586811,0.00091552734375,0.0
0.155,0.0436423458158969,0.00030517578125,0.0
0.1554999999999999,0.0436343885958194,0.0006103515625,0.0
0.156,0.0436261557042598,0.00091552734375,0.0
0.1564999999999999,0.043618481606245,0.00030517578125,0.0
0.157,0.0436099469661712,0.0006103515625,0.0
0.1574999999999999,0.0436019152402877,0.0006103515625,0.0
0.158,0.0435941219329834,0.0006103515625,0.0
0.1584999999999999,0.0435856506228446,0.00091552734375,0.0
0.159,0.0435778647661209,0.00030517578125,0.0
0.1594999999999999,0.0435695834457874,0.0006103515625,0.0
0.16,0.0435616001486778,0.00030517578125,0.0
0.1604999999999999,0.0435534827411174,0.00030517578125,0.0
0.161,0.043545201420784,0.00030517578125,0.0
0.1614999999999999,0.0435373596847057,0.00030517578125,0.0
0.162,0.0435289517045021,0.0006103515625,0.0
0.1624999999999999,0.0435208864510059,0.0006103515625,0.0
0.163,0.0435128398239612,0.00030517578125,0.0
0.1634999999999999,0.0435045547783374,0.00091552734375,0.0
0.164,0.0434968285262584,0.0006103515625,0.0
0.1644999999999999,0.04348861053586,0.0006103515625,0.0
0.165,0.0434801392257213,0.0006103515625,0.0
0.1654999999999999,0.0434722937643528,0.00091552734375,0.0
0.166,0.0434642322361469,0.0006103515625,0.0
0.1664999999999999,0.0434561520814895,0.0006103515625,0.0
0.167,0.0434476919472217,0.00030517578125,0.0
0.1674999999999999,0.0434401035308837,0.0006103515625,0.0
0.168,0.0434319153428077,0.0006103515625,0.0
0.1684999999999999,0.043423518538475,0.00091552734375,0.0
0.169,0.0434156134724617,0.00091552734375,0.0
0.1694999999999999,0.0434076823294162,0.00030517578125,0.0
