Time [s],Lmtc [m],STIM [ ],Fsee [N],Gamma [ ],Lcerel [ ]
0.0,0.01988443784043916,0.999999859513709,1.4359626278050992,0.08732534282778284,1.2213783100470403
0.0016192621985251716,0.019905282861674065,0.9999998474810072,2.270090275808747,0.11373170435297272,1.220498463361788
0.003238524397050343,0.019897425834701315,0.9999998216594467,3.071262561479488,0.13937405172636325,1.2180131665300151
0.0048577865955755145,0.019871555453649978,0.9999997850120118,3.7637738871833397,0.16427448972838157,1.2146683046483167
0.006477048794100686,0.01983407663170635,0.9999997390352309,4.328628674151425,0.18845448366878711,1.210843395903849
0.008096310992625857,0.019788897877687874,0.9999996850175364,4.775343779487146,0.211934877846013,1.2067355536842537
0.009715573191151029,0.019738607680215396,0.9999996241660021,5.126929082683609,0.23473591350883133,1.2024551297915187
0.0113348353896762,0.019684902553651934,0.9999995576131688,5.40651958708272,0.2568772463020022,1.198066590386276
0.012954097588201373,0.01962891158949059,0.9999994863977373,5.633890462830502,0.27837796320736596,1.1936089317063985
0.014573359786726544,0.019571375984914628,0.9999994114488484,5.8230264755483985,0.2992565989942208,1.189107747330249
0.016192621985251714,0.01951279232334871,0.9999993335828058,5.984003605266749,0.3195311521932881,1.184579852661487
0.017811884183776886,0.019453492100147934,0.9999992535040572,6.123645397241446,0.33921910060840926,1.180036683704351
0.019431146382302058,0.01939370276939508,0.9999991718113762,6.246887056640852,0.3583374163794709,1.1754858771095904
0.02105040858082723,0.019333593272847886,0.9999990890042194,6.357786056177638,0.37690258060969556,1.1709326598131304
0.0226696707793524,0.019273281921970618,0.9999990054910259,6.458912026008372,0.3949305975699044,1.1663811759882157
0.024288932977877573,0.019212845042173674,0.9999989216007306,6.551696252816821,0.4124370084920493,1.161834428448904
0.025908195176402745,0.019152341011174245,0.9999988375923118,6.637612905876441,0.4294369049639914,1.157294152097314
0.027527457374927917,0.019091818309983064,0.9999987536617534,6.71804187714505,0.4459449419370041,1.1527615894043122
0.02914671957345309,0.01903131127140907,0.9999986699497159,6.793780949634261,0.4619753503571332,1.1482378895843133
0.03076598177197826,0.018970841559664445,0.9999985865493942,6.865250008001152,0.47754194943131617,1.1437238795001412
0.03238524397050343,0.018910423735617635,0.9999985035127141,6.932826455652858,0.4926581585388331,1.1392199542967423
0.0340045061690286,0.018850068602498073,0.9999984208549959,6.9969038345579495,0.507337008798305,1.134726230670348
0.03562376836755377,0.018789784167540385,0.9999983385588651,7.057831358815655,0.5215911543001595,1.1302427036801868
0.037243030566078944,0.018729575659585697,0.9999982565776677,7.115870391481921,0.5354328830142195,1.1257693081086009
0.038862292764604116,0.01866944547799143,0.9999981748383431,7.171192320656089,0.5488741273818035,1.121305913722697
0.04048155496312929,0.01860939364182953,0.9999980932436494,7.2239150306041156,0.5619264746014496,1.1168523017049063
0.04210081716165446,0.018549418721355963,0.9999980116736692,7.274149933804917,0.5746011766171044,1.1124081626358648
0.04372007936017963,0.018489518748441857,0.9999979299866344,7.3220258768350766,0.5869091598173719,1.1079731278265006
0.0453393415587048,0.018429691712478755,0.9999978480191917,7.367683073976821,0.598861034454153,1.1035468141037423
0.046958603757229975,0.018369934050296112,0.9999977655862122,7.4111731565634065,0.6104671037887893,1.0991288563629227
0.048577865955755146,0.018310240955747195,0.9999976824801744,7.452467506128563,0.6217373729735732,1.094718916064081
0.05019712815428032,0.01825060962971927,0.9999975984700729,7.491631401749677,0.6326815576762724,1.0903166689118453
0.05181639035280549,0.018191036696471846,0.9999975132997648,7.528706159992763,0.6433090924550908,1.0859217852781837
0.05343565255133066,0.018131518271690475,0.9999974266856638,7.563721556067274,0.6536291388912685,1.0815339169911842
0.055054914749855834,0.018072050148310526,0.9999973383137042,7.596706591946847,0.6636505934863153,1.077152695360187
0.056674176948381005,0.018012627974511777,0.9999972478354945,7.627694265607425,0.6733820953306662,1.07277773731025
0.05829343914690618,0.017953247354152716,0.999997154863549,7.6567202758623125,0.682832033550348,1.0684086544750278
0.05991270134543135,0.017893903841841197,0.9999970589654442,7.683817770632706,0.6920085545380561,1.0640450601380507
0.06153196354395652,0.017834592846919357,0.999996959656683,7.709011128594448,0.7009195689748429,1.0596865708156136
0.06315122574248169,0.017775309482951043,0.9999968563919691,7.732311116505526,0.709572758648443,1.0553328018768664
0.06477048794100686,0.01771604842834328,0.999996748554489,7.753713890012118,0.7179755830740752,1.0509833585782151
0.06638975013953202,0.01765680384666732,0.9999966354426665,7.773203962048509,0.7261352859233663,1.0466378259426146
0.06800901233805719,0.017597569236734136,0.9999965162537289,7.790751898374907,0.7340589012668941,1.0422957609373882
0.06962827453658235,0.017538337024331243,0.9999963900632639,7.80630007785499,0.7417532596356333,1.03795668245412
0.07124753673510752,0.017479098272331992,0.9999962557996233,7.8197634627267005,0.7492249939064358,1.0336200489725316
0.07286679893363268,0.017419843626907953,0.9999961122113606,7.831094834457129,0.7564805450164888,1.0292852367929726
0.07448606113215785,0.017360566188078946,0.9999959578250324,7.840411493316644,0.7635261675114884,1.024951573541603
0.07610532333068301,0.017301264000541328,0.9999957908901806,7.8480252385279545,0.7703679349320758,1.020618478700074
0.07772458552920818,0.01724193526180414,0.999995609308748,7.854071970359289,0.7770117450428291,1.016285628785649
0.07934384772773334,0.017182570443471802,0.9999954105446034,7.85820461798374,0.7834633249079269,1.0119528084057081
0.0809631099262585,0.017123160426233304,0.999995191500795,7.860314170902507,0.7897282358173386,1.0076195020184513
0.08258237212478367,0.017063710935408954,0.9999949483459103,7.861142596336019,0.7958118780669328,1.0032850963031443
0.08420163432330884,0.017004231933010386,0.9999946762784034,7.861206399599641,0.8017194955952642,0.9989496004446945
0.085820896521834,0.016944717510966545,0.9999943692162827,7.85986999910065,0.8074561804793776,0.9946134657183247
0.08744015872035917,0.016885145116548136,0.9999940193371574,7.855846116766625,0.8130268772915684,0.9902768353903164
0.08905942091888433,0.016825494344562004,0.9999936163883587,7.848678907439089,0.81843638731677,0.9859388579786255
0.0906786831174095,0.016765762872725867,0.9999931466409608,7.839143882987365,0.8236893726279654,0.9815982926340506
0.09229794531593466,0.016705949921175092,0.9999925912650586,7.827626578414495,0.8287903600134239,0.9772545524435349
0.09391720751445982,0.016646055757501405,0.9999919237175987,7.814333671838193,0.8337437447432998,0.9729073753892049
0.09553646971298499,0.016586081126806648,0.9999911053383985,7.799371774439143,0.8385537941516755,0.9685566736110076
0.09715573191151015,0.016526022779054485,0.9999900775420104,7.782574442160789,0.843224650987552,0.9642024490569064
0.09877499411003532,0.016465873346114903,0.9999887470789649,7.763663419293438,0.8477603364429679,0.959844561515834
0.10039425630856048,0.01640561970245423,0.9999869559419295,7.742232440174988,0.8521647526670774,0.9554826331540066
0.10201351850708565,0.01634526149111747,0.999984413269505,7.7187913584308845,0.8564416843368001,0.9511159387974282
0.10363278070561081,0.016284792150001073,0.9999805185001551,7.693215034161389,0.8605947982118124,0.9467441886737258
0.10525204290413598,0.01622421605999621,0.9999737995654546,7.666023797090949,0.8646276375857944,0.9423669861994366
0.10687130510266114,0.016163527245191243,0.9999594317607041,7.636880942984085,0.8685436006436558,0.9379843821765929
0.10849056730118631,0.016102721382923613,0.999907068420725,7.605742823638465,0.8723458476592919,0.9335961392284488
0.11010982949971147,0.016041853992267888,0.00011652344989850168,7.57567857018494,0.8760365694609542,0.929201983546269
0.11172909169823664,0.015980470903694033,2.065051888019144e-05,7.521644131719637,0.8252098352801249,0.9248042971001578
0.1133483538967618,0.01591894136956621,9.769940950488427e-06,7.4609967934985,0.7773268783245367,0.9204056277666507
0.11496761609528697,0.01585725439929923,5.7290778975680894e-06,7.392878860520452,0.7322218108498446,0.9160065200381681
0.11658687829381213,0.015795391234355145,3.699278854429543e-06,7.3158871897382225,0.6897338361922926,0.9116077776042594
0.1182061404923373,0.01573332135947043,2.522710920816046e-06,7.228099618596626,0.6497112081005643,0.9072101665636955
0.11982540269086246,0.01567107188752815,1.7818653042587884e-06,7.130759292965411,0.6120109185700691,0.9028141482707543
0.12144466488938763,0.01560861327980314,1.2899093094067038e-06,7.02040720207709,0.5764982337443004,0.8984229495888724
0.12306392708791279,0.015545926562601868,9.510817021814018e-07,6.895076759856438,0.5430462271733809,0.8940385762649882
0.12468318928643796,0.015482996800433219,7.114974177731001e-07,6.752909084770903,0.5115353320555704,0.889663365389275
0.12630245148496314,0.015419811122446425,5.387178455594636e-07,6.591892270292777,0.4818529166063643,0.8853002814966576
0.12792171368348831,0.015356363058122763,4.1220226855250045e-07,6.4101225243650655,0.45389288288232704,0.8809529145598751
0.1295409758820135,0.01529267357628222,3.1842838493834256e-07,6.2067448948441175,0.42755528833004064,0.8766256233721518
0.13116023808053867,0.01522878058995604,2.482209067416377e-07,5.980849908841542,0.40274598901242437,0.8723244889157007
0.13277950027906385,0.015164733537352766,1.9520501108077814e-07,5.7314818519601065,0.37937630338266665,0.8680570175919784
0.13439876247758903,0.015100591391339567,1.5486738261985118e-07,5.458001625008195,0.35736269547872657,0.8638315420589312
0.1360180246761142,0.015036486823314207,1.239615028978741e-07,5.163250039754755,0.3366264764467282,0.8596566036892159
0.1376372868746394,0.014972602956663377,1.0012258648568431e-07,4.85063441759411,0.31709352334965474,0.8555436958199454
0.13925654907316456,0.014909173477054864,8.161171525335006e-08,4.524326995022183,0.29869401427048003,0.8515067477258699
0.14087581127168974,0.01484649474683657,6.713954862065711e-08,4.189796527992599,0.28136217877171693,0.8475616986938289
0.14249507347021492,0.014784934636538842,5.574296432466274e-08,3.85360295080273,0.2650360628249054,0.8437269139475368
0.1441143356687401,0.014724930162626146,4.6697886805901334e-08,3.522567007780712,0.24965730737345934,0.8400239560748034
0.14573359786726528,0.014666998000618025,3.9456531160647355e-08,3.203595301004415,0.23517093973986675,0.8364781325471224
0.14735286006579046,0.014611737478147402,3.360301178830642e-08,2.902746197925709,0.2215251771333328,0.8331202204665099
0.14897212226431564,0.014559849260667146,2.8823357018260483e-08,2.6249049767419894,0.20867124155677833,0.8299884662380386
0.15059138446284082,0.01451215587392288,2.4885574605424434e-08,2.37321714321734,0.19656318545255236,0.8271316766989862
0.152210646661366,0.014469584163453151,2.1624062478339644e-08,2.1482296019416633,0.1851577274643058,0.8246109365658362
0.15382990885989117,0.014433058592986589,1.8920557524329523e-08,1.947811073726755,0.17441409772826127,0.8224935750354181
0.15544917105841635,0.014403266281260972,1.667910056873329e-08,1.768368785658091,0.16429389214071521,0.8208342877355409
0.15706843325694153,0.01438036759970156,1.4806042198469961e-08,1.6068413481975712,0.15476093508055722,0.8196490613936523
0.1586876954554667,0.014363854990930234,1.3208281402554743e-08,1.4615611574772043,0.14578115009647663,0.8189018816129189
0.1603069576539919,0.014352724127370257,1.1804784499356296e-08,1.3320062090141864,0.1373224380977443,0.8185171194380808
0.16192621985251707,0.01434363229097944,7.93436501552727e-08,1.1730203939348982,0.12935456261392952,0.8184073394685456
0.1623069576539919,0.014343095405729818,7.809974024073025e-08,1.1621507898479797,0.12754923095284318,0.8184073394685446
0.1626876954554667,0.014342192410697011,7.687816823183125e-08,1.1416610686097086,0.12576909727530045,0.8184157896650129
0.16306843325694154,0.014341497186664944,7.567767994195917e-08,1.123787994325372,0.12401380987958165,0.8184304457370628
0.16344917105841636,0.014340984920034994,7.449829896127657e-08,1.107729532294901,0.12228302197284316,0.8184522491468377
0.16382990885989118,0.014340728411500655,7.334032948107924e-08,1.0946107144950328,0.12057639160261817,0.8184821870519787
0.164210646661366,0.014340759419291815,7.220448139334405e-08,1.084514685337624,0.11889358158926287,0.8185220744799399
0.16459138446284083,0.014341141404135409,7.109215504787714e-08,1.0779308378530335,0.11723425945934313,0.8185745492543944
0.16497212226431565,0.014341998324988624,7.000628273728948e-08,1.076106205468022,0.1155980973799593,0.8186438497303723
0.16535286006579047,0.014343410966905265,6.895240811932264e-08,1.0785281740214774,0.11398477209399314,0.8187377391317049
0.1657335978672653,0.014345500398992461,6.794052013976865e-08,1.0840264206647023,0.11239396485628184,0.8188694672860309
0.16611433566874012,0.014348632361709437,6.699122494302333e-08,1.0934654904309766,0.11082536137070209,0.8190625631326081
0.16649507347021494,0.014353048851685724,6.613201530328248e-08,1.098334058914379,0.10927865172822099,0.8193663875333692
0.16687581127168977,0.01435928441396419,6.537740064079241e-08,1.094921450659764,0.1077535303457599,0.8198335733840829
0.1672565490731646,0.01436776106902912,6.472403468212464e-08,1.0867756562408952,0.10624969590563098,0.8204817752745578
0.1676372868746394,0.01437862820636988,6.416385423497995e-08,1.0773912839593427,0.10476685129575727,0.8213089734105186
0.16801802467611424,0.014391917047804976,6.368911818848284e-08,1.0675620138000348,0.10330470355090357,0.822314516967813
0.16839876247758906,0.01440760277988224,6.329252746931797e-08,1.0581650849617519,0.10186296379480368,0.8234933043674066
0.16877950027906388,0.014425633488067328,6.296728415674455e-08,1.0490108434613306,0.10044134718309247,0.8248422523483253
0.1691602380805387,0.01444593072026928,6.270706046054031e-08,1.0404922338717133,0.09903957284703906,0.8263541337851124
0.16954097588201353,0.01446844825754088,6.25076805672987e-08,1.032981396879593,0.09765736383806252,0.8280241272826566
0.16992171368348835,0.014493141308163935,6.236546229646569e-08,1.0260675397142516,0.0962944470730467,0.829850504797151
0.17030245148496317,0.014519935942380106,6.227647533750789e-08,1.019752063062622,0.09495055328039413,0.8318278500625617
0.170683189286438,0.01454876390841261,6.223750998622848e-08,1.0140518957454425,0.09362541694682287,0.8339511022140847
0.17106392708791282,0.014579563492997952,6.224598819580282e-08,1.0089460381534212,0.09231877626492052,0.8362158248877594
0.17144466488938764,0.014612276705590807,6.229980845015827e-08,1.004401179621926,0.09103037308142807,0.8386179034492359
0.17182540269086247,0.014646848427843705,6.239726814954169e-08,1.0003808990691652,0.08975995284624329,0.84115344754141
0.1722061404923373,0.014683226138477133,6.253701423712085e-08,0.9968484621118937,0.08850726456213527,0.8438187599640805
0.1725868782938121,0.014721359748958322,6.27180056579902e-08,0.9937679862331995,0.08727206073516021,0.8466103198618161
0.17296761609528694,0.01476120146263309,6.293948337680493e-08,0.9911049849965866,0.0860540973257664,0.8495247700176848
0.17334835389676176,0.014802705639640857,6.320094621580195e-08,0.9888266424301894,0.08485313370058659,0.852558905632288
0.17372909169823658,0.014845828666825305,6.350213155531794e-08,0.986901939441067,0.08366893258489744,0.8557096640692339
0.1741098294997114,0.014890528834562971,6.384300023959143e-08,0.9853017040576366,0.08250126001574365,0.8589741154320039
0.17449056730118623,0.014936766223340626,6.422372522461253e-08,0.9839986236141992,0.08134988529572058,0.8623494540304855
0.17487130510266105,0.014984502590308646,6.464468316743559e-08,0.9829670100652956,0.08021458094739564,0.8658329908433179
0.17525204290413587,0.015033701270127535,6.510644935636582e-08,0.9821831146022025,0.07909512266836648,0.8694221448950035
0.1756327807056107,0.015084327085417286,6.560979509996009e-08,0.9816245260984061,0.07799128928695136,0.8731144389512835
0.17601351850708552,0.015136346244538391,6.615568737310653e-08,0.9812704678417595,0.07690286271849292,0.8769074907889935
0.17639425630856034,0.015189726267251588,6.674529135338915e-08,0.9811015353472305,0.07582962792227407,0.8807990087098929
0.17677499411003517,0.015244435903470393,6.737997502443821e-08,0.9810996151099913,0.07477137285903476,0.8847867858576494
0.17715573191151,0.015300445058652083,6.806131620795576e-08,0.9812477990913613,0.07372788844908248,0.888868695049495
0.1775364697129848,0.015357724724600145,6.879111206513583e-08,0.9815302989792152,0.07269896853098609,0.8930426840152477
0.17791720751445964,0.015416246914969057,6.957139117629195e-08,0.9819323652285935,0.07168440982084649,0.8973067709705488
0.17829794531593446,0.015475984605136252,7.040442837221487e-08,0.9824402110891647,0.07068401187213892,0.9016590404974886
0.17867868311740928,0.015536911676105759,7.129276254997939e-08,0.9830409413322303,0.06969757703611003,0.9060976397079257
0.1790594209188841,0.015599002862106706,7.223921777161623e-08,0.9837224856520944,0.0687249104227354,0.9106207746638648
0.17944015872035893,0.01566223370158381,7.324692801950388e-08,0.984473536711606,0.06776581986221725,0.9152267070319229
0.17982089652183375,0.01572658049131636,7.43193660695236e-08,0.9852834927536206,0.06682011586701808,0.9199137509521259
0.18020163432330857,0.015792020243436233,7.546037704497106e-08,0.9861424045970344,0.0658876115944316,0.9246802701042875
0.1805823721247834,0.01585853064513878,7.667421733480237e-08,0.9870409267552164,0.06496812280967024,0.9295246749573596
0.18096310992625822,0.015926090020899272,7.796559970424831e-08,0.9879702724491473,0.06406146784947181,0.9344454201884759
0.18134384772773304,0.015994677297023724,7.933974560040192e-08,0.9889221722055596,0.0631674675862134,0.9394410022599875
0.18172458552920787,0.016064271968372634,8.080244586800649e-08,0.9898888357720583,0.062285945392527936,0.9445099571434125
0.1821053233306827,0.016134854067109253,8.23601313518073e-08,0.9908629171189208,0.06141672710641182,0.9496508581800798
0.1824860611321575,0.01620640413333371,8.401995518436289e-08,0.991837482234627,0.06055964099682718,0.9548623140692568
0.18286679893363234,0.01627890318747378,8.578988895943163e-08,0.9928059795561994,0.0597145177297799,0.960142966974756
0.18324753673510716,0.01635233270436267,8.767883549590471e-08,0.9937622136663558,0.05888119033487349,0.9654914907423079
0.18362827453658198,0.01642667458812421,8.969676148176834e-08,0.9947003055553183,0.058059494172333484,0.9709065892286106
0.1840090123380568,0.016501911147330763,9.185485411779208e-08,0.9956146694984862,0.05724926690049131,0.9763869945856026
0.18438975013953163,0.01657802507440401,9.416570713576634e-08,0.9965000461997118,0.05645034844372675,0.9819314656349353
0.18477048794100645,0.016654999429099076,9.664354263124765e-08,0.9973514574152068,0.05566258096085666,0.9875387868466146
0.18515122574248127,0.016732817618755454,9.930447657071359e-08,0.9981641449090999,0.054885808813973876,0.9932077671427555
0.1855319635439561,0.01681146337746741,1.0216683846176378e-07,0.9989335766518206,0.05411987853771943,0.9989372383604419
0.18591270134543092,0.016890920747790056,1.0525155827123106e-07,0.9996554263926389,0.053364638808988375,1.0047260540032052
0.18629343914690574,0.01697117406505297,1.085826381805665e-07,1.0003255128519413,0.052619940417069036,1.0105730883395352
0.18667417694838057,0.017052207943344163,1.1218773236118886e-07,1.0009398815020503,0.05188563623419928,1.0164772350683
0.1870549147498554,0.017134007257378164,1.1609886321970102e-07,1.001494804443606,0.051161581186545756,1.0224374060031653
0.1874356525513302,0.017216557132357046,1.203533135281729e-07,1.0019867225476742,0.05044763222559708,1.0284525305638943
