Time [s],Lmtc [m],STIM [ ],Fsee [N],Gamma [ ],Lcerel [ ]
0.0,0.021232738156168746,0.9999997818455177,1.5844368706898893,0.09249068712949111,1.3191853747782618
0.0027293635779781136,0.02121924615403105,0.9999996966104664,2.812031055145457,0.1363080106344786,1.3149484008719146
0.005458727155956227,0.021159700366878365,0.9999995598764196,3.708869025743512,0.17800969520532442,1.3086713175319953
0.00818809073393434,0.021079977550706626,0.9999993851777157,4.3046553730658745,0.21769788789445035,1.3017016427993782
0.010917454311912454,0.020991454527727695,0.999999184820189,4.719911952154049,0.2554698044346532,1.2944885302514255
0.013646817889890568,0.020899204246064493,0.9999989694450897,5.035970184765253,0.29141796727903113,1.2872076546323663
0.01637618146786868,0.020805535043791075,0.9999987476319592,5.295596600483499,0.3256304321265575,1.2799357148818362
0.019105545045846793,0.020711548620050188,0.9999985259390528,5.520752311225131,0.3581910034911298,1.2727084039185688
0.02183490862382491,0.020617792945321192,0.9999983091607828,5.723122886526543,0.38917943986423603,1.2655425331713808
0.024564272201803024,0.020524545842786006,0.9999981006503625,5.909252894417949,0.41867164898416664,1.2584455251423838
0.02729363577978114,0.020431945778155557,0.9999979026314079,6.083008776713286,0.4467398736926106,1.2514198801002119
0.030022999357759254,0.020340055995876724,0.9999977164674388,6.246795317724459,0.4734528688325664,1.2444654336543117
0.03275236293573737,0.020248897754635488,0.9999975428815749,6.40218206887485,0.49887606961809455,1.2375805622134228
0.035481726513715485,0.02015846838130157,0.9999973821293624,6.550240244689572,0.5230717518852669,1.2307628539586783
0.0382110900916936,0.02006875146810754,0.9999972341316308,6.691731589659201,0.5460991846140529,1.2240094937753154
0.040940453669671716,0.019979722815247167,0.9999970985750055,6.827218416820325,0.5680147750923996,1.2173174885221913
0.04366981724764983,0.019891353978032014,0.9999969749870495,6.957130027739184,0.588872207076192,1.210683800110652
0.046399180825627946,0.019803614419933096,0.9999968627918882,7.081804126372962,0.6087225722820586,1.2041054239007487
0.04912854440360606,0.019716472831352312,0.999996761351008,7.2015134236011,0.6276144955339852,1.1975794339847388
0.05185790798158418,0.019629897937507995,0.9999966699928896,7.316483206049692,0.6455942538694364,1.1911030081195817
0.05458727155956229,0.01954385898760121,0.9999965880342806,7.426903238940896,0.6627058898960979,1.1846734400396213
0.05731663513754041,0.0194583260422895,0.999996514795237,7.53293602518872,0.6789913196764368,1.1782881439250668
0.06004599871551852,0.019373270132253175,0.9999964496095347,7.6347226657685106,0.694490435403988,1.1719446540225291
0.06277536229349663,0.019288663333940373,0.9999963918316576,7.732387106206006,0.7092412031226185,1.16564062131987
0.06550472587147474,0.01920447879211005,0.9999963408412569,7.826039274875687,0.7232797557279431,1.1593738084927614
0.06823408944945285,0.01912069070843973,0.9999962960457568,7.915777445620393,0.7366404814785613,1.153142083905123
0.07096345302743096,0.01903727430884541,0.9999962568816043,8.001690047517524,0.7493561082338277,1.1469434151654292
0.07369281660540906,0.018954205797866504,0.9999962228145358,8.083857073788597,0.7614577836244212,1.1407758625587265
0.07642218018338717,0.01887146230564695,0.9999961933391365,8.162351195280012,0.7729751513520486,1.1346375725548672
0.07915154376136528,0.018789021831169712,0.9999961679778964,8.237238652802537,0.783936423805144,1.1285267715148932
0.08188090733934339,0.018706863184146768,0.9999961462799132,8.308579981460289,0.7943684511684106,1.1224417596657021
0.0846102709173215,0.01862496592711979,0.9999961278193522,8.376430605508816,0.8042967871954826,1.1163809053789746
0.0873396344952996,0.018543310318752955,0.9999961121937397,8.440841332075422,0.8137457518058048,1.110342639768015
0.09006899807327771,0.018461877258909437,0.9999960990221493,8.501858764837731,0.8227384906590591,1.1043254516017085
0.09279836165125582,0.018380646132999716,0.999996087943315,8.55941038300654,0.8312970318530708,1.0983278825256482
0.09552772522923393,0.0182995942338747,0.9999960786136987,8.613274010141627,0.839442339884075,1.0923485225748781
0.09825708880721204,0.01821870400858812,0.9999960707055231,8.663478518364641,0.8471943670015165,1.0863860059594934
0.10098645238519015,0.018137958520076488,0.9999960639047764,8.710059653181592,0.8545721020831947,1.0804390071026917
0.10371581596316826,0.01805734121549931,0.9999960579091842,8.75304992957711,0.8615936171504648,1.0745062369102658
0.10644517954114636,0.017976835885104406,0.9999960524261432,8.792478809073732,0.8682761116374482,1.0685864392506028
0.10917454311912447,0.017896426622792942,0.9999960471705983,8.828372853723229,0.87463595452269,1.0626783876246935
0.11190390669710258,0.01781609778822203,0.9999960418628467,8.860755860046709,0.8806887244264627,1.056780882006379
0.11463327027508069,0.01773583397027483,0.9999960362262392,8.889648975373863,0.8864492477719497,1.050892745833872
0.1173626338530588,0.017655619951724124,0.9999960299847487,8.915070798580507,0.8919316351037755,1.045012823134417
0.1200919974310369,0.017575440674914095,0.9999960228603637,8.937037466860993,0.8971493156528492,1.039139975764817
0.12282136100901501,0.017495281208284686,0.9999960145702583,8.955562729877252,0.9021150702321846,1.0332730807512784
0.12555072458699312,0.017415126713563697,0.9999960048236766,8.970658012383591,0.906841062544274,1.027411027712748
0.12828008816497125,0.017334962413451786,0.9999959933184575,8.982332466224376,0.9113388689766948,1.021552716352473
0.13100945174294937,0.01725477355962575,0.9999959797371064,8.990593012431303,0.915619506958923,1.0156970540030141
0.1337388153209275,0.017174545400884283,0.9999959637422983,8.995444374000952,0.9196934619498078,1.0098429532102695
0.1364681788989056,0.017094263180143933,0.9999959449716957,8.996890723170473,0.9235707131217863,1.003989329342318
0.13919754247688373,0.017013913488701973,0.9999959230351546,8.995012038693362,0.9272607578047373,0.9981351002359385
0.14192690605486186,0.016933478610979928,0.9999958975179669,8.98954214200224,0.930772634749478,0.9922793213240949
0.14465626963283998,0.016852946304980642,0.9999958679686648,8.980344814001684,0.9341149462681774,0.9864212813798243
0.1473856332108181,0.016772306810681804,0.9999958338833677,8.96741530116249,0.9372958793051851,0.9805602826128529
0.15011499678879622,0.0166915502283317,0.9999957946940191,8.950747251612086,0.9403232254897267,0.9746956221967299
0.15284436036677435,0.016610666503725818,0.9999957497543055,8.930332704756495,0.9432044002198362,0.9688265912670135
0.15557372394475247,0.01652964541278158,0.9999956983222025,8.906162076766389,0.9459464608241733,0.962952473890682
0.1583030875227306,0.016448476545344592,0.9999956395381193,8.87822414188839,0.9485561238460902,0.9570725460027181
0.1610324511007087,0.0163671492881521,0.999995572397243,8.846506009509696,0.9510397814921143,0.9511860743054902
0.16376181467868683,0.016285652806870946,0.9999954957141545,8.810993096871725,0.953403517284915,0.9452923151261986
0.16649117825666496,0.016203976027118358,0.9999954080770261,8.77166909729586,0.9556531209587862,0.9393905132272671
0.16922054183464308,0.016122107614363394,0.9999953077875914,8.728515943750734,0.9577941026337198,0.9334799005641042
0.1719499054126212,0.016040035952596003,0.9999951927813968,8.681513767555753,0.9598317063022119,0.9275596949841917
0.17467926899059932,0.015957749121637554,0.999995060520296,8.630640851978587,0.9617709226610335,0.9216290988608764
0.17740863256857745,0.015875234872952858,0.9999949078451679,8.575873580445228,0.9636165013182556,0.9156872976546563
0.18013799614655557,0.015792480603807193,0.9999947307705095,8.517186379038442,0.9653729624037678,0.9097334583940184
0.1828673597245337,0.015709473329593847,0.9999945241922035,8.454551652914361,0.9670446076092896,0.9037667280671281
0.1855967233025118,0.015626199654136502,0.9999942814623385,8.387939716215703,0.9686355306812252,0.8977862319147434
0.18832608688048993,0.015542645737747308,0.9999939937546735,8.317318715003827,0.9701496273863653,0.891791071613754
0.19105545045846806,0.015458797262793785,0.9999936490896605,8.242654542668571,0.971590604965772,0.8857803233395606
0.19378481403644618,0.015374639396496447,0.9999932307849344,8.163910747203708,0.9729619910851309,0.8797530356942261
0.1965141776144243,0.015290156750642565,0.9999927148931856,8.081048429655267,0.9742671422781378,0.873708227485833
0.19924354119240242,0.015205333337859473,0.999992065760917,7.994026132956793,0.975509251858504,0.8676448853427875
0.20197290477038055,0.015120152524041778,0.9999912278761874,7.90279972025666,0.9766913572355159,0.8615619611448712
0.20470226834835867,0.015034596976469637,0.9999901098022377,7.807322241710092,0.9778163464827584,0.8554583692506198
0.2074316319263368,0.014948648607088222,0.9999885495032049,7.707543788537861,0.9788869638139603,0.8493329834980862
0.2101609955043149,0.014862288510339116,0.9999862299038087,7.603411332909836,0.9799058131202809,0.8431846339531618
0.21289035908229303,0.014775496894839984,0.9999824351511356,7.494868551805907,0.9808753572598117,0.8370121033764417
0.21561972266027116,0.01468825300809761,0.9999751361799631,7.381855632285514,0.9817979056130675,0.8308141233763441
0.21834908623824928,0.01460053505337325,0.9999554284219203,7.264309056775147,0.9826755580880744,0.8245893702143933
0.2210784498162274,0.014512320105419512,0.9997172427687502,7.142161742613501,0.9835098832672715,0.8183364602414246
0.22380781339420552,0.014423695650316253,2.6616289307722273e-05,7.020883770439334,0.9842924244543416,0.8120539455978197
0.22653717697218365,0.014333869068522583,9.353426594207523e-06,6.857166504065347,0.889950487687359,0.8057482973021812
0.22926654055016177,0.014243457080482207,4.599492533388123e-06,6.675857393848273,0.8046496684439852,0.7994293526227537
0.2319959041281399,0.014152416971855007,2.5660470385026986e-06,6.4725825884710595,0.7275245652445822,0.7931018917854074
0.234725267706118,0.014060703662615403,1.5309612204529367e-06,6.2419582515755545,0.6577917880132731,0.7867727833637393
0.23745463128409613,0.013968276410201715,9.5378305373276e-07,5.977746903297731,0.5947428703566413,0.7804516394534917
0.24018399486207426,0.013875114176551441,6.137905042288161e-07,5.673411427212072,0.5377372013151279,0.7741516368798562
0.24291335844005238,0.013781245634596817,4.060930704683066e-07,5.323286962020296,0.486195551995692,0.7678905356098995
0.2456427220180305,0.013686800384961926,2.758191517871991e-07,4.924502106512744,0.4395942031397372,0.761691933649166
0.24837208559600862,0.013592084761117078,1.9236341096679273e-07,4.479450237744507,0.3974596292615801,0.755586812641746
0.25110144917398675,0.013497676168177118,1.3788528947158124e-07,3.9980207019079033,0.3593636898493504,0.749615451246826
0.25383081275196484,0.013404516588521381,1.0165590822170671e-07,3.4982784418567636,0.3249192803918337,0.7438298227389621
0.25656017632994293,0.013313983007243234,7.707293591491383e-08,3.004572107848403,0.2937763997170438,0.7382967710952396
0.25928953990792103,0.013227943924420749,5.99985063397081e-08,2.5434827668437627,0.2656185939943277,0.7331033179180162
0.2620189034858991,0.013148860158123181,4.781596992555583e-08,2.138568174765185,0.24015974142323748,0.7283694171533998
0.2647482670638772,0.013079903669924904,3.8916290956451256e-08,1.8019725540106162,0.21714114502288628,0.7242769255743214
0.2674776306418553,0.013024702687378702,3.2354918352315706e-08,1.5253988638111797,0.19632890403122122,0.7210882302892038
0.2702069942198334,0.012985914653729284,2.7463388940808015e-08,1.2910303661604217,0.17751153722550478,0.7190299684904272
0.2729363577978115,0.012965336738431126,1.4830731491320306e-07,1.1427744059770777,0.16049783401275697,0.718053124232569
0.2735403275531667,0.012961906464811964,1.4481659801285644e-07,1.075100568956715,0.15695903519445684,0.7180531242325677
0.2741442973085219,0.01295856700467159,1.414029076429495e-07,1.0111915202552182,0.15349826781307485,0.718053166509786
0.2747482670638771,0.012955337839348813,1.380646309681056e-07,0.9512471038031644,0.15011381125507642,0.7180532407801647
0.2753522368192323,0.012953089661217622,1.3480469527491643e-07,0.9105455176341575,0.146803982846906,0.7180534925888122
0.2759562065745875,0.012951740151914304,1.316287326185735e-07,0.8847752985123781,0.14356713701849985,0.7180609430225363
0.27656017632994273,0.012950805693219275,1.2853839811986651e-07,0.8633499365791619,0.14040166448520344,0.7180819848814026
0.27716414608529794,0.012950364972677228,1.2553416018978013e-07,0.8467766273728997,0.13730599144758002,0.718119586505677
0.27776811584065314,0.012950563557300739,1.2262025975985315e-07,0.8361877670525355,0.13427857880892546,0.7181789674570065
0.27837208559600835,0.012951659009364637,1.1980993700454292e-07,0.8334753483639233,0.1313179214101464,0.7182703633821341
0.27897605535136355,0.01295405575475045,1.1714148134001006e-07,0.8401000065702708,0.1284225472816247,0.71841688841284
0.27958002510671875,0.012958099682773108,1.1470023772850397e-07,0.8478257461786523,0.12559101691193258,0.7186789334239504
0.28018399486207396,0.012964777095747195,1.1257104810955505e-07,0.8443114293973811,0.12282192253315782,0.7191805114393762
0.28078796461742916,0.012975590791347044,1.1076873262368022e-07,0.8340997009056426,0.12011388742093915,0.7200120840829402
0.28139193437278437,0.012991032621550491,1.092583211619213e-07,0.8223348906934074,0.11746556520840334,0.7211879259122849
0.2819959041281396,0.013011081645481043,1.0799878929130909e-07,0.8109869652768259,0.11487563921567606,0.7226981446995848
0.2825998738834948,0.013035576864087843,1.0695468081482847e-07,0.800723827398658,0.1123428217951417,0.7245280706571473
0.28320384363885,0.013064323477597705,1.0609706833792124e-07,0.7917321789204157,0.10986585369139651,0.7266626042373415
0.2838078133942052,0.013097124274075032,1.0540265026541353e-07,0.7840104993942376,0.10744350341533633,0.7290872873449495
0.2844117831495604,0.013133789776296008,1.0485268745724447e-07,0.7774820998947473,0.10507456663202616,0.7317885680804264
0.2850157529049156,0.01317414144475487,1.0443209222713826e-07,0.7720425712658964,0.10275786556204324,0.734753830685751
0.2856197226602708,0.013218012342547363,1.0412870145755854e-07,0.7675808376269049,0.10049224839600111,0.7379713506304229
0.286223692415626,0.013265246815096039,1.0393270814004536e-07,0.7639886777117575,0.09827658872196783,0.7414302267875329
0.2868276621709812,0.013315699791758864,1.0383621865894187e-07,0.7611648900005827,0.09610978496549633,0.7451203093284818
0.2874316319263364,0.013369235964435174,1.038329074848192e-07,0.759016868983076,0.09399075984199341,0.7490321303149091
0.2880356016816916,0.013425728954842855,1.0391774692600231e-07,0.7574609082708194,0.0919184598211561,0.7531568395020672
0.2886395714370468,0.013485060519413998,1.0408679484908785e-07,0.7564218846414692,0.08989185460321142,0.7574861460501082
0.28924354119240203,0.013547119811878996,1.04337027430089e-07,0.7558326583409893,0.08790993660670063,0.7620122660800245
0.28984751094775724,0.013611802709880954,1.0466620715126443e-07,0.7556333644130208,0.08597172046755408,0.7667278757012872
0.29045148070311244,0.013679011205375529,1.0507277862475095e-07,0.7557706861003732,0.08407624254920901,0.7716260690281792
0.29105545045846765,0.01374865285548789,1.0555578659635271e-07,0.7561971565844825,0.0822225604635269,0.7767003206821069
0.29165942021382285,0.013820640289181814,1.0611481181493123e-07,0.7568705109976781,0.08040975260227289,0.7819444522978409
0.29226338996917806,0.013894890764681866,1.0674992146048973e-07,0.7577530973565458,0.07863691767892482,0.7873526025890711
0.29286735972453326,0.013971325772634864,1.0746163159255872e-07,0.7588113478745038,0.07690317428058457,0.7929192005715769
0.29347132947988847,0.01404987068026681,1.0825087967234674e-07,0.7600153083378812,0.07520766042976877,0.7986389415852293
0.29407529923524367,0.01413045441216212,1.0911900567313062e-07,0.7613382213850983,0.07354953315586185,0.8045067657965332
0.2946792689905989,0.014213009163695134,1.1006774065728117e-07,0.7627561587722093,0.07192796807601813,0.8105178389003852
0.2952832387459541,0.014297470143544891,1.1109920199022741e-07,0.7642476975574058,0.07034215898530466,0.8166675347729331
0.2958872085013093,0.014383775342104058,1.1221589460039735e-07,0.7657936353132061,0.06879131745588173,0.8229514198569261
0.2964911782566645,0.014471865322943525,1.134207178941114e-07,0.7673767398151302,0.06727467244502165,0.829365239086978
0.2970951480120197,0.014561683034812969,1.1471697810669753e-07,0.7689815290668057,0.06579146991177061,0.8359049031851126
0.2976991177673749,0.014653173641943115,1.1610840602465615e-07,0.7705940779493236,0.06434097244206385,0.8425664771770277
0.2983030875227301,0.014746284370671244,1.1759918015585308e-07,0.7722018481986425,0.06292245888210728,0.8493461699972003
0.2989070572780853,0.014840964370637554,1.1919395556175947e-07,0.7737935388031214,0.06153522397984394,0.8562403250663646
0.2995110270334405,0.014937164589000844,1.208978987033827e-07,0.7753589542672766,0.060178578034326614,0.8632454117384739
0.3001149967887957,0.01503483765629887,1.2271672879618362e-07,0.7768888885054288,0.058851846552822856,0.8703580175260973
0.3007189665441509,0.01513393778273537,1.2465676632447728e-07,0.7783750224109184,0.05755436991548156,0.8775748410236464
0.30132293629950613,0.015234420663813347,1.2672498953847587e-07,0.7798098333951055,0.05628550304739515,0.8848926854569514
0.30192690605486133,0.015336243394355723,1.2892909995387842e-07,0.7811865154082157,0.055044615097893906,0.8923084527957372
0.30253087581021654,0.015439364390061707,1.3127759810248015e-07,0.7824989081446928,0.05383108912691347,0.8998191383726218
0.30313484556557174,0.015543743315841338,1.3377987105191164e-07,0.7837414343016159,0.05264432179827962,0.907421825958457
0.30373881532092695,0.01564934102025432,1.3644629353468402e-07,0.7849090439034225,0.05148372307975829,0.9151136832493286
0.30434278507628215,0.01575611947545243,1.3928834491534e-07,0.7859971648318318,0.05034871594972161,0.9228919577253437
0.30494675483163736,0.015864041722089786,1.4231874469754208e-07,0.7870016588091541,0.049238736110284786,0.9307539728456026
0.30555072458699256,0.015973071818722703,1.4555160985310606e-07,0.7879187821782356,0.048153231706771375,0.9386971245475264
0.30615469434234777,0.016083174795271382,1.4900263797159442e-07,0.7887451509047988,0.04709166305336768,0.9467188780220331
0.30675866409770297,0.01619431661016075,1.5268932112008836e-07,0.7894777092998424,0.04605350236483084,0.9548167647390158
0.3073626338530582,0.0163064641107974,1.5663119641782377e-07,0.7901137020221918,0.045038233494117445,0.9629883797001922
0.3079666036084134,0.01641958499707497,1.608501407349134e-07,0.7906506489757686,0.04404535167580305,0.9712313788987164
0.3085705733637686,0.01653364778763139,1.6537071870525923e-07,0.7910863227634951,0.04307436327516583,0.9795434769670032
0.3091745431191238,0.016648621788609572,1.7022059551721323e-07,0.7914187284011495,0.04212478554281067,0.9879224449960694
0.309778512874479,0.01676447706457811,1.7543102882767012e-07,0.7916460830423222,0.041196146374713076,0.9963661085113013
0.3103824826298342,0.016881184408166612,1.810374562636891e-07,0.7917667483085886,0.04028798407756496,1.004872345560862
0.3109864523851894,0.0169987153075956,1.8708020188406186e-07,0.7917792010574881,0.039399847139307505,1.013439084481805
0.3115904221405446,0.017117041935645352,1.936053377619452e-07,0.7916822038250896,0.03853129400473948,1.0220643023554075
0.3121943918958998,0.01723613712757361,2.0066573264353623e-07,0.7914746883634293,0.03768189285609258,1.0307460239106143
0.312798361651255,0.017355974360266473,2.083223374093545e-07,0.7911557316749225,0.03685122139846801,1.0394823201122823
0.3134023314066102,0.017476527733346896,2.1664577389283982e-07,0.7907245458112148,0.036038866650032836,1.0482713068314256
0.31400630116196543,0.01759777195149505,2.2571831389382014e-07,0.7901804685354327,0.03524442473687739,1.0571111435995757
