Time [s],Lmtc [m],STIM [ ],Fsee [N],Gamma [ ],Lcerel [ ]
0.0,0.019293926548590565,0.9999998682573552,2.1538154707256467,0.11035039286282484,1.1762410452017935
0.0012569815347680023,0.019297593234821758,0.9999998565278674,2.8009403642909785,0.1303971194535478,1.1749054283728748
0.0025139630695360047,0.01928740929153081,0.9999998386416616,3.4009170845041536,0.14999212714457724,1.172836109602347
0.003770944604304007,0.019267590394303223,0.9999998154285384,3.9364117192685137,0.1691455945086069,1.1703031672818907
0.005027926139072009,0.019240732131943102,0.9999997873988341,4.398390535198956,0.18786747078033275,1.167464765024429
0.006284907673840012,0.019208645393398904,0.9999997549770481,4.7879175385121755,0.20616748101699378,1.164418748044655
0.007541889208608014,0.019172671774690134,0.9999997185433445,5.113036402706182,0.2240551311478919,1.1612281100605721
0.008798870743376017,0.019133802100462057,0.9999996784459451,5.38398168922132,0.24153971291106663,1.1579347845105197
0.010055852278144019,0.01909276016525931,0.9999996350041004,5.610564398860477,0.2586303086790076,1.1545672795639546
0.01131283381291202,0.019050082114811212,0.9999995885073111,5.801684108703986,0.2753357961756959,1.1511452259477486
0.012569815347680022,0.01900616532244527,0.9999995392138868,5.964698303853184,0.2916648530873372,1.147682682851856
0.013826796882448023,0.018961302171204657,0.9999994873499651,6.105284054372919,0.3076259615691677,1.1441899887335962
0.015083778417216025,0.018915710254178472,0.9999994331090458,6.2278708809207375,0.3232274126506842,1.1406747615055413
0.016340759951984026,0.0188695539906567,0.9999993766520643,6.335952995935516,0.3384773105415998,1.137142684506568
0.017597741486752028,0.018822958515983375,0.9999993181078738,6.43224940426799,0.35338357684077426,1.1335980881743908
0.01885472302152003,0.018776019531731622,0.9999992575739346,6.518857899396589,0.36795395465031305,1.1300443149884354
0.02011170455628803,0.01872881097310061,0.9999991951170576,6.597417302735219,0.38219601259697944,1.1264839564914844
0.021368686091056032,0.018681390231936035,0.9999991307740917,6.669206975330364,0.3961171487630058,1.1229190358390175
0.022625667625824034,0.018633802298718916,0.9999990645524517,6.735242653492033,0.409724594528348,1.1193511340511346
0.023882649160592035,0.0185860825024861,0.9999989964304006,6.796327604998142,0.4230254183263714,1.1157814924309322
0.025139630695360037,0.018538258930471837,0.9999989263570179,6.853114841366846,0.43602652931491775,1.1122110818907733
0.026396612230128038,0.018490354008791322,0.9999988542517833,6.906135689602888,0.4487346809646466,1.1086406661919266
0.02765359376489604,0.018442385791528293,0.9999987800037163,6.955828406346353,0.4611564745665146,1.1050708467220536
0.02891057529966404,0.018394368424198337,0.9999987034700023,7.0025331121247385,0.47329836266019587,1.1015020987798585
0.030167556834432042,0.018346311304414335,0.9999986244740185,7.046434673134835,0.4851666523852207,1.0979347899325607
0.03142453836920005,0.01829822293472888,0.9999985428026774,7.087739482397764,0.4967675087565573,1.0943691978621244
0.03268151990396805,0.018250110278118594,0.9999984582029613,7.12663555664708,0.5081069578663228,1.090805521233827
0.03393850143873606,0.018201978920296298,0.9999983703774956,7.163292736240255,0.5191908900132733,1.08724389018266
0.03519548297350406,0.01815383306556442,0.9999982789789621,7.1978478203508365,0.5300250627616736,1.0836843866594663
0.03645246450827207,0.018105675931681456,0.999998183603103,7.230421480417296,0.5406151039311164,1.0801270477169747
0.03770944604304007,0.01805750993666775,0.999998083779999,7.261119958737891,0.5509665145188137,1.0765718760587015
0.03896642757780808,0.018009336611978333,0.9999979789631881,7.290024915435043,0.5610846715558432,1.0730188478295106
0.04022340911257608,0.017961157028492603,0.9999978685160725,7.317216375146654,0.570974830898785,1.0694679100859255
0.04148039064734409,0.01791297160262361,0.9999977516948668,7.342754908808061,0.5806421299581536,1.0659189920373786
0.04273737218211209,0.01786478043275797,0.9999976276270902,7.366700840937582,0.5900915903649594,1.0623720016422054
0.0439943537168801,0.01781658308795648,0.9999974952842584,7.389097475013094,0.599328120576703,1.0588268340837006
0.0452513352516481,0.017768378967247093,0.9999973534469375,7.4099924688870455,0.6083565184240303,1.055283367121076
0.04650831678641611,0.017720166976549233,0.9999972006595961,7.429414865366437,0.6171814735992166,1.0517414702791568
0.04776529832118411,0.017671945876883356,0.9999970351716748,7.44739815488689,0.6258075700875603,1.0482009971056947
0.04902227985595212,0.017623714121925555,0.9999968548597705,7.463966642345516,0.6342392885426585,1.044661792723128
0.05027926139072012,0.0175754698809959,0.9999966571234966,7.47913833675989,0.6424810086064116,1.0411236912683257
0.05153624292548813,0.017527211188644524,0.9999964387440942,7.492933314863036,0.6505370111743974,1.0375865148246848
0.05279322446025613,0.017478935918075623,0.9999961956892958,7.505369350382806,0.65841148060702,1.0340500776703427
0.054050205995024136,0.01743064194258912,0.9999959228390451,7.516469582462513,0.6661085068864312,1.0305141871179635
0.05530718752979214,0.017382327003081337,0.9999956135919836,7.526251630083889,0.6736320877186726,1.0269786492879245
0.056564169064560146,0.017333988768949017,0.9999952592875407,7.534732082552794,0.68098613057958,1.023443267126313
0.05782115059932815,0.017285624958996406,0.9999948483343086,7.541932083320844,0.6881744547015689,1.0199078412775944
0.059078132134096156,0.017237233186258867,0.9999943648545406,7.547866165063713,0.6952007929960055,1.0163721745716563
0.06033511366886416,0.017188810827053664,0.9999937864994795,7.552537820601265,0.7020687939017195,1.0128360687053475
0.061592095203632166,0.017140355202225642,0.9999930807766497,7.555953383116004,0.708782023142638,1.0092993177718368
0.06284907673840016,0.017091863442044213,0.9999921985551928,7.558113027161676,0.7153439653630538,1.005761711143622
0.06410605827316816,0.017043332728222324,0.9999910618481491,7.559025609755396,0.7217580255797018,1.0022230301020816
0.06536303980793616,0.01699476079898399,0.9999895389892841,7.5587299869237095,0.7280275303258151,0.9986830544865097
0.06662002134270416,0.016946142757326928,0.9999873888940353,7.557106430418349,0.7341557282100559,0.995141596887683
0.06787700287747216,0.016897475729323132,0.9999841175074174,7.5541035210795195,0.7401457892068833,0.9915985212111164
0.06913398441224015,0.016848757885554056,0.9999785278753981,7.54972606978765,0.746000800728243,0.9880536884640956
0.07039096594700815,0.01679998749485494,0.9999667799900209,7.543985296773994,0.7517237536455035,0.9845069582641589
0.07164794748177615,0.01675116293894888,0.9999261045253641,7.536896143116165,0.7573174849087367,0.9809581936902079
0.07290492901654415,0.016702337562405828,0.00012893815324271492,7.531295202572962,0.7627842544795911,0.9774072642847818
0.07416191055131215,0.01665304756724018,1.954950861825213e-05,7.50208812554071,0.7282026165019473,0.9738559738393298
0.07541889208608014,0.016603683861455908,9.410319317331106e-06,7.467894558894671,0.6951840994889285,0.9703064888201167
0.07667587362084814,0.016554241949097333,5.690169872280193e-06,7.428417539797293,0.6636623251284492,0.9667589547562978
0.07793285515561614,0.016504717588310056,3.805639999213264e-06,7.383213399767365,0.6335697156977173,0.9632137587510577
0.07918983669038414,0.016455101719937307,2.694125545295991e-06,7.33146355561368,0.6048415499102132,0.9596714933654931
0.08044681822515214,0.016405387815100793,1.9780114838608157e-06,7.2724892727778245,0.5774159930399513,0.9561327636847351
0.08170379975992013,0.01635556601889322,1.4894918552878261e-06,7.205343030758122,0.5512339970923967,0.9525983548172363
0.08296078129468813,0.016305631204930768,1.1427527451153683e-06,7.12930250143346,0.5262391839555638,0.9490691163198757
0.08421776282945613,0.016255575745030122,8.894433431705604e-07,7.043352650978122,0.502377728053825,0.945546195235099
0.08547474436422413,0.016205392946869703,7.003199880279025e-07,6.946464905604856,0.4795982423035934,0.9420308995700896
0.08673172589899213,0.01615507861468924,5.567160721295165e-07,6.837650129426294,0.4578516684079366,0.9385247502738149
0.08798870743376012,0.016104630541918283,4.4620397621550253e-07,6.715893713428465,0.43709117173892004,0.9350295589497046
0.08924568896852812,0.016054049307018422,3.602273121220242e-07,6.5802045360531976,0.41727204078973434,0.9315474370579723
0.09050267050329612,0.016003341489997314,2.927328122718982e-07,6.429776858449753,0.39835159107873536,0.9280808093074182
0.09175965203806412,0.015952524127944283,2.393418184489275e-07,6.2641480382764865,0.3802890733488549,0.9246325104058178
0.09301663357283212,0.01590161970297326,1.9682828886602079e-07,6.082853980222402,0.3630455858920808,0.9212059631719256
0.09427361510760011,0.01585066337666157,1.627788138962896e-07,5.885876850063557,0.3465839908258529,0.9178050266848377
0.09553059664236811,0.015799704926136336,1.3536474265623077e-07,5.673635349547223,0.33086883415043505,0.9144341358534092
0.09678757817713611,0.015748808070548743,1.1318556867434498e-07,5.446891439765141,0.3158662694208987,0.911098378709817
0.09804455971190411,0.01569806651265255,9.515891682391167e-08,5.207457097707967,0.3015439848730468,0.9078034332143305
0.0993015412466721,0.01564759163569342,8.044180885438757e-08,4.95725259900703,0.28787113384877594,0.9045561240965151
0.1005585227814401,0.015597516475580237,6.837340184862301e-08,4.69861014963241,0.2748182683726826,0.9013641283849928
0.1018155043162081,0.015548002700896606,5.843267042978787e-08,4.434488354678918,0.26235727573799744,0.898235959235682
0.1030724858509761,0.015499239382036352,5.0206718506821115e-08,4.168149144063015,0.2504613179660696,0.8951812622526111
0.1043294673857441,0.01545144246594686,4.336681252103875e-08,3.9029754355587833,0.23910477400958113,0.8922109460606407
0.1055864489205121,0.015404855451672415,3.7650105505096275e-08,3.64234337800037,0.22826318457543276,0.8893373227783297
0.1068434304552801,0.015359750645149436,3.284568626123954e-08,3.389463780044728,0.217913199448769,0.8865743846886183
0.10810041199004809,0.0153164324852998,2.8784062439606557e-08,3.1472411294173654,0.2080325272049276,0.883938253714005
0.10935739352481609,0.015275242804532001,2.5329452503216308e-08,2.9181223183144755,0.19859988720119007,0.8814478696493843
0.11061437505958409,0.015236566177019815,2.2374278436960076e-08,2.7039286585042026,0.1895949637450839,0.8791258259307797
0.11187135659435209,0.015200829674401142,1.9834976601412207e-08,2.5056814617512373,0.18099836234064295,0.8769989446351812
0.11312833812912008,0.015168485920519736,1.7647835580670467e-08,2.323463504328846,0.17279156791846156,0.8750976915619748
0.11438531966388808,0.015139967590438237,1.5763607145800865e-08,2.156461408665018,0.16495690495958976,0.8734531630927256
0.11564230119865608,0.0151156093915048,1.4140831172324611e-08,2.003270093129636,0.15747749942734016,0.8720910028227191
0.11689928273342408,0.015095556232229385,1.2739845763918083e-08,1.8623878478456586,0.15033724242496693,0.8710236175570801
0.11815626426819208,0.015079700143716469,1.1520249188927845e-08,1.7326312108884552,0.1435207555009933,0.8702444385292015
0.11941324580296007,0.015067685794465888,1.0442577035605768e-08,1.6132296510338606,0.13701335752762903,0.8697279004173504
0.12067022733772807,0.015058987660849503,9.47199672732503e-09,1.503677922307599,0.1308010330811404,0.8694353376438061
0.12192720887249607,0.015052177908682695,8.578661742127213e-09,1.3849354622063426,0.12487040225615835,0.8693234315727383
0.12318419040726407,0.015044375379311263,7.736216797795221e-09,1.2182557595241992,0.11920869184875266,0.8693233570707758
0.12444117194203207,0.015037030349581206,6.93197739089484e-09,1.071096509059019,0.1138037078461223,0.8693233426294142
0.12569815347680008,0.015030136822423988,6.350096599710651e-08,0.9415958799834289,0.10864380916418423,0.8693233341929477
0.12597963348049362,0.015044999374485064,6.278043083862582e-08,1.2312009086573006,0.10752078403508925,0.8693233341929473
0.12626111348418717,0.01504734671656358,6.212186209363373e-08,1.2398755819857263,0.10640936841668261,0.8694640712031827
0.12654259348788072,0.0150503862934201,6.150883181889644e-08,1.247079382699498,0.1053094422937465,0.8696604934715029
0.12682407349157426,0.015054297541452212,6.095272187150292e-08,1.2494424692655979,0.10422088689157702,0.8699373550254903
0.1271055534952678,0.015059357297687774,6.045946210725399e-08,1.2470864464990472,0.10314358466344704,0.8703143627778512
0.12738703349896136,0.015065781592848635,6.00295945210186e-08,1.2416969009892576,0.10207741927785616,0.8708014231752773
0.1276685135026549,0.015073682073619825,5.966084125293346e-08,1.234674949690622,0.1010222756059117,0.8714018364307625
0.12794999350634845,0.015083101143677833,5.9349907940556276e-08,1.2268854391202688,0.09997803970886766,0.8721157045060907
0.128231473510042,0.015094044375705358,5.9093329742137155e-08,1.2188445603117932,0.09894459882581048,0.8729416408661567
0.12851295351373554,0.015106499487491218,5.8887865887729166e-08,1.2108701747772515,0.09792184136148178,0.8738776360903014
0.12879443351742909,0.015120444259045643,5.873057135663196e-08,1.2031159552436133,0.09690965687422992,0.8749215241214725
0.12907591352112263,0.01513585053582837,5.8618778556956e-08,1.1956768226454753,0.09590793606408751,0.8760709084135231
0.12935739352481618,0.01515268944747218,5.8550215751258095e-08,1.1886473706679355,0.0949165707609721,0.8773233374275955
0.12963887352850972,0.015170932521802544,5.852298622271155e-08,1.1820499204832438,0.0939354539130094,0.8786766437117048
0.12992035353220327,0.015190549772657186,5.8535416689357865e-08,1.1758721812242299,0.09296447957497789,0.8801286733404493
0.13020183353589682,0.015211510662742173,5.858605375511959e-08,1.1701165615589193,0.09200354289687068,0.8816771804358673
0.13048331353959036,0.015233785558690364,5.867369742389302e-08,1.1647791048831533,0.09105254011257573,0.8833200085085495
0.1307647935432839,0.015257345778790302,5.879737666340518e-08,1.1598483613372326,0.09011136852867337,0.8850550982950458
0.13104627354697745,0.015282163533520934,5.895632636052297e-08,1.1553098726010027,0.0891799265133498,0.886880467458131
0.131327753550671,0.01530821192612198,5.9149971012844134e-08,1.1511469003615522,0.08825811348542445,0.8887942080414277
0.13160923355436455,0.015335464963961888,5.937791223013945e-08,1.1473423749389355,0.08734582990349052,0.8907944802273132
0.1318907135580581,0.015363897525760322,5.963991794065537e-08,1.143877816136883,0.08644297725516828,0.8928795138076745
0.13217219356175164,0.015393485325475622,5.99359136724576e-08,1.1407353416257309,0.08554945804646913,0.8950475981961139
0.13245367356544518,0.015424204896382602,6.026597666681917e-08,1.1378969150555547,0.08466517579126881,0.8972970839148149
0.13273515356913873,0.01545603358093992,6.063033223127574e-08,1.1353456421820831,0.0837900350008904,0.8996263770507544
0.13301663357283228,0.015488949488720719,6.102935058267332e-08,1.133064237563416,0.08292394117379466,0.9020339416975517
0.13329811357652582,0.015522931456651349,6.146354520354444e-08,1.1310366867866721,0.08206680078537613,0.9045182909162269
0.13357959358021937,0.015557959034372026,6.193357402008296e-08,1.1292472958161617,0.08121852127786605,0.9070779890640104
0.13386107358391292,0.015594012443533112,6.244024060671715e-08,1.1276811153860318,0.08037901105033853,0.9097116472103817
0.13414255358760646,0.01563107255000695,6.298449730514029e-08,1.1263238040189518,0.07954817944882063,0.9124179215510959
0.1344240335913,0.015669120828382566,6.356744992889831e-08,1.1251615823395267,0.07872593675650444,0.9151955109328259
0.13470551359499355,0.01570813934918808,6.41903643110478e-08,1.1241816839975485,0.07791219418406092,0.9180431542181726
0.1349869935986871,0.015748110741232724,6.485467393385732e-08,1.1233713924174318,0.07710686386005292,0.92095963102913
0.13526847360238065,0.01578901816492877,6.556198939237193e-08,1.1227190922876285,0.0763098588214486,0.9239437559063751
0.1355499536060742,0.015830845293349566,6.631410995414396e-08,1.1222133726824544,0.07552109300423179,0.9269943801846474
0.13583143360976774,0.015873576283881995,6.711303683248755e-08,1.1218436107429401,0.07474048123411099,0.930110387753798
0.13611291361346128,0.015917195764096947,6.796098905788259e-08,1.121599635312667,0.07396793921732293,0.9332906952369935
0.13639439361715483,0.015961688801369753,6.886042142469728e-08,1.1214716512441838,0.07320338353153263,0.9365342500314767
0.13667587362084838,0.016007040877986694,6.981404533207532e-08,1.1214503459636305,0.07244673161682709,0.9398400280825862
0.13695735362454192,0.016053237886629,7.082485330515802e-08,1.121527124929969,0.07169790176680257,0.9432070326721798
0.13723883362823547,0.016100266108427456,7.189614676452709e-08,1.121693485546658,0.07095681311974404,0.9466342951041884
0.13752031363192901,0.016148112181246434,7.303156762944296e-08,1.1219413443758202,0.07022338564989644,0.9501208711780392
0.13780179363562256,0.016196763104511385,7.423513589056042e-08,1.1222633911397426,0.06949754015882587,0.9536658402297402
0.1380832736393161,0.016246206190209223,7.551129085010424e-08,1.1226516387693046,0.0687791982668714,0.9572683068761143
0.13836475364300965,0.016296429070597595,7.686494052343508e-08,1.123099840937606,0.06806828240468472,0.9609273926913434
0.1386462336467032,0.01634741969145062,7.830151905245859e-08,1.123600896705899,0.06736471580485838,0.964642245238671
0.13892771365039674,0.01639916627063078,7.982705128059604e-08,1.124148546385724,0.06666842249364113,0.9684120288187025
0.1392091936540903,0.016451657312891145,8.144822995279688e-08,1.1247368438241099,0.06597932728273916,0.9722359274824017
0.13949067365778384,0.016504881586701544,8.317250449826172e-08,1.1253598612849343,0.06529735576120334,0.9761131444213655
0.13977215366147738,0.016558828109803407,8.500818540514285e-08,1.1260120947290524,0.06462243428740097,0.980042899425578
0.14005363366517093,0.01661348613749391,8.69645662569046e-08,1.1266880975786477,0.0639544899810718,0.9840244293709935
0.14033511366886448,0.016668845144418937,8.905206785672327e-08,1.1273826584229203,0.0632934507154674,0.988056986239326
0.14061659367255802,0.016724894820233357,9.128241005026094e-08,1.1280908730460788,0.06263924510957286,0.9921398365374388
0.14089807367625157,0.016781625066593493,9.366881554371489e-08,1.128808072151946,0.061991802520411574,0.9962722613432503
0.1411795536799451,0.01683902597990454,9.622625338938345e-08,1.1295295765198907,0.06135105303543084,1.000453555944957
0.14146103368363866,0.01689708783503931,9.897173157937318e-08,1.1302509144604576,0.06071692746496881,1.0046830278580656
0.1417425136873322,0.01695580109756183,1.0192465290591807e-07,1.1309680609591632,0.06008935733480286,1.0089599968426688
0.14202399369102575,0.01701515639940446,1.0510724600348224e-07,1.1316765964459368,0.05946827487877823,1.013283796209654
0.1423054736947193,0.017075144516093745,1.0854509377718267e-07,1.132372530863834,0.058853613031517336,1.0176537681463012
0.14258695369841284,0.01713575638396323,1.1226778840861331e-07,1.1330522309219735,0.05824530542121024,1.0220692652399597
0.1428684337021064,0.017196983098689632,1.1630974434668623e-07,1.133712100767971,0.05764328636248584,1.026529651540929
0.14314991370579994,0.017258815882989925,1.207112150074431e-07,1.1343482489089376,0.05704749084936581,1.0310343014257997
0.14343139370949348,0.01732124608810134,1.255195816096328e-07,1.1349574522507033,0.05645785454830155,1.0355825961848348
0.14371287371318703,0.01738426519726304,1.3079100085436833e-07,1.135536268965736,0.05587431379129619,1.040173927519144
0.14399435371688057,0.01744786480916637,1.3659252862707746e-07,1.136081462532505,0.055296805569115474,1.0448076947872367
0.14427583372057412,0.01751203663486706,1.4300489407675827e-07,1.1365898513417076,0.054725267524589956,1.0494833053313628
0.14455731372426767,0.017576772496101237,1.501261668163409e-07,1.1370584647471251,0.054159637946015686,1.054200173787491
