Time [s],Lmtc [m],STIM [ ],Fsee [N],Gamma [ ],Lcerel [ ]
0.0,0.0208256111448177,0.9999999413031626,1.3973285894395264,0.08649114021394493,1.290106438499988
0.0023394460999573855,0.020833473840353164,0.9999999248096387,2.5618855794401174,0.12442986078715805,1.2874233912638444
0.004678892199914771,0.020795360920401275,0.999999895828127,3.5074606032686133,0.16079295653579384,1.2825272488075243
0.0070183382998721565,0.020734921710569294,0.9999998571194431,4.190010508376551,0.19564586384766033,1.2767670352053415
0.009357784399829542,0.020662987884992882,0.9999998109983292,4.670983856581283,0.22905130160189058,1.270634532626999
0.011697230499786927,0.020585190771599513,0.9999997596087978,5.024689764695641,0.2610693840106347,1.2643388691388542
0.014036676599744311,0.02050442042878189,0.9999997048311202,5.300940608938194,0.291757728785786,1.2579785255712785
0.016376122699701696,0.020422191686361082,0.9999996482336075,5.528962791714981,0.32117156080959586,1.2516036715424204
0.01871556879965908,0.020339327187080543,0.9999995910736784,5.72557416599303,0.34936381149776685,1.2452412586400001
0.021055014899616465,0.020256289210549807,0.9999995343266836,5.900631921142123,0.3763852140359645,1.2389061780628143
0.02339446099957385,0.02017334423873933,0.9999994787260604,6.060097656970447,0.4022843946622819,1.2326066605758346
0.025733907099531234,0.02009064780377397,0.9999994248052314,6.207705520503406,0.42710796016033836,1.2263470811276536
0.02807335319948862,0.020008290170646745,0.9999993729364154,6.34587850748687,0.45090058172046676,1.2201295023068932
0.030412799299446003,0.019926321980102694,0.999999323364352,6.476243416182535,0.4737050753196898,1.213954565653528
0.03275224539940339,0.019844769170443553,0.9999992762344837,6.599927133801246,0.49556247876485654,1.2078220266972872
0.035091691499360776,0.019763641955892766,0.9999992316159162,6.717733342977968,0.516512125537289,1.2017310842920306
0.03743113759931816,0.019682940415047957,0.9999991895198214,6.830252235522065,0.5365917155715572,1.1956805885182724
0.039770583699275545,0.019602658056193975,0.9999991499139966,6.9379292564151,0.5558373830955203,1.1896691763799176
0.04211002979923293,0.019522784118314367,0.9999991127342671,7.041108220680864,0.574283761653527,1.1836953615586736
0.044449475899190315,0.0194433050896195,0.999999077893346,7.1400603280208825,0.5919640464296212,1.1777575928506625
0.0467889219991477,0.01936420575017189,0.9999990452876685,7.235005132473287,0.6089100539827906,1.1718542928553701
0.049128368099105084,0.019285469852427097,0.9999990148026365,7.326122562615542,0.6251522795016439,1.1659838853567264
0.05146781419906247,0.019207080561605874,0.9999989863166235,7.413561270059534,0.6407199516814788,1.160144811791872
0.05380726029901985,0.01912902078078649,0.9999989597039832,7.497446996379573,0.6556410853224252,1.154335540220712
0.05614670639897724,0.01905127341162023,0.9999989348372655,7.577889596776579,0.6699425317432778,1.1485545722721022
0.05848615249893462,0.01897382150608913,0.9999989115888317,7.654984983481989,0.6836500271016903,1.142800449873585
0.06082559859889201,0.018896648329785413,0.9999988898320245,7.728815689221599,0.6967882387076659,1.1370717577425535
0.0631650446988494,0.01881973742455854,0.9999988694419691,7.799454463477875,0.7093808094136599,1.1313671217922079
0.06550449079880678,0.01874307266008355,0.999998850296073,7.866966743303948,0.7214504001611596,1.125685208560987
0.06784393689876417,0.01866663824942301,0.9999988322743018,7.9314110450323,0.733018730760295,1.1200247250788282
0.07018338299872155,0.01859041874857827,0.9999988152592832,7.992839660079682,0.7441066189758517,1.1143844172420445
0.07252282909867894,0.018514399056056598,0.9999987991362652,8.051299866135318,0.7547340179900158,1.1087630675745266
0.07486227519863632,0.01843856440990706,0.9999987837929495,8.106834810384584,0.7649200523092609,1.1031594933470699
0.0772017212985937,0.018362897460806556,0.99999876911923,8.159327804989088,0.7746830521799855,1.0975725449014417
0.07954116739855109,0.018287380771436986,0.9999987550068493,8.208635279793647,0.7840405865748369,1.0920011037535207
0.08188061349850848,0.018212000604519975,0.9999987413489797,8.254792046449714,0.7930094948090671,1.086444080474051
0.08422005959846586,0.018136743476736533,0.9999987280397321,8.297829597438556,0.8016059168438249,1.0809004123177997
0.08655950569842324,0.018061596130627817,0.9999987149735914,8.337776273989967,0.8098453223309067,1.0753690606776614
0.08889895179838063,0.017986545512108192,0.9999987020447784,8.374657581089526,0.8177425384512312,1.069849008783161
0.09123839789833801,0.01791157875391118,0.9999986891465327,8.408496721254947,0.8253117765971392,1.0643392595700203
0.0935778439982954,0.017836683168696597,0.9999986761703107,8.439315336634644,0.8325666579465218,1.0588388340065682
0.09591729009825278,0.017761846234665625,0.9999986630048794,8.467133328897047,0.839520237974807,1.0533467701368429
0.09825673619821017,0.017687055569194657,0.9999986495352883,8.491968274151725,0.846185029948903,1.0478621218048527
0.10059618229816755,0.017612298899623326,0.9999986356416916,8.513835253713776,0.8525730274453794,1.0423839566264947
0.10293562839812494,0.017537564036298674,0.9999986211979905,8.532747012468556,0.8586957259334039,1.0369113537047892
0.10527507449808232,0.01746283884821019,0.9999986060702598,8.548714177464207,0.8645641434612618,1.0314434014713736
0.1076145205980397,0.01738811124091391,0.9999985901149071,8.5617454638953,0.8701888404836886,1.0259791957279834
0.10995396669799709,0.017313369137246806,0.999998573176506,8.571847902553559,0.8755799388656773,1.0205178378774347
0.11229341279795448,0.017238600460057003,0.9999985550852193,8.579027024940904,0.8807471400969562,1.0150584333710266
0.11463285889791186,0.01716379311447901,0.9999985356537083,8.58328690349947,0.8856997427498969,1.0096000903268696
0.11697230499786924,0.017088934964577765,0.9999985146733947,8.58462988292499,0.8904466592122559,1.0041419181583993
0.11931175109782663,0.017014015136820874,0.9999984919108562,8.583129403849021,0.8949964317248312,0.998683025868241
0.12165119719778401,0.016939018772786783,0.9999984671061707,8.578567355241328,0.899357247752923,0.993222621118026
0.1239906432977414,0.0168639349602812,0.999998439965426,8.570792317343441,0.9035369547193258,0.9877601129746483
0.1263300893976988,0.01678875570695765,0.999998410150188,8.559801434540942,0.9075430741251468,0.9822949284890083
0.1286695354976562,0.01671347291607065,0.9999983772670411,8.545590597121029,0.9113828150837314,0.9768264912089377
0.1310089815976136,0.016638078369956524,0.9999983408544553,8.52815409342661,0.915063087292086,0.9713542204776003
0.133348427697571,0.016562563715985835,0.9999983003658623,8.507484717357714,0.9185905134630378,0.9658775303201524
0.1356878737975284,0.016486920450561167,0.9999982551475869,8.48357370254093,0.9219714412403746,0.9603958284320321
0.1380273198974858,0.016411139905201245,0.9999982044096918,8.456410850225723,0.9252119546182261,0.954908515074926
0.1403667659974432,0.01633521323286649,0.9999981471869231,8.425984584743977,0.9283178848849779,0.9494149821003834
0.1427062120974006,0.01625913139561195,0.9999980822855784,8.392282056339798,0.9312948211110521,0.943914612020759
0.14504565819735799,0.01618288515376727,0.999998008209986,8.355289260975534,0.9341481201989178,0.9384067771825203
0.14738510429731538,0.01610646505615298,0.9999979230588271,8.314991135127975,0.9368829165126638,0.9328908390628184
0.14972455039727278,0.016029861427484936,0.9999978243757882,8.271371438901355,0.9395041311033414,0.9273661476623797
0.15206399649723018,0.015953064345991436,0.999997708929189,8.224412235511878,0.942016480544969,0.9218320407530616
0.15440344259718758,0.01587606363412368,0.9999975723777773,8.17409454599653,0.9444244853944181,0.9162878425135366
0.15674288869714498,0.01579884883396816,0.9999974087476005,8.120397650532425,0.9467324782860762,0.9107328629039395
0.15908233479710238,0.015721409174361066,0.9999972095823526,8.063298579617207,0.9489446116686029,0.9051663962187384
0.16142178089705977,0.015643733560634893,0.9999969625018406,8.002773283006501,0.9510648651850906,0.8995877190265963
0.16376122699701717,0.015565810544201863,0.9999966486242872,7.938795759803182,0.9530970526868499,0.8939960894511155
0.16610067309697457,0.015487628297421674,0.9999962376496425,7.871338257751268,0.9550448288488564,0.8883907454162513
0.16844011919693197,0.015409174597968204,0.9999956776867236,7.800371842453392,0.9569116953062632,0.8827709031010145
0.17077956529688937,0.015330436783434133,0.9999948718471217,7.725864965172507,0.958701006113571,0.8771357560459832
0.17311901139684677,0.015251401733028563,0.999993615962331,7.647784737273431,0.9604159720050177,0.8714844725324965
0.17545845749680417,0.015172055835319706,0.9999913932514667,7.5660964343227475,0.9620596618913984,0.8658161944495543
0.17779790359676156,0.015092384948411345,0.9999864048978014,7.480763105539026,0.9636349957671996,0.8601300355405196
0.18013734969671896,0.015012374347806366,0.9999651021049353,7.391744970168762,0.9651446976518085,0.8544250791453777
0.18247679579667636,0.014932094596659656,2.2274359014373847e-05,7.303349446355943,0.9665908157477273,0.8487003751813905
0.18481624189663376,0.014850913267947886,5.09505593390926e-06,7.180765320213854,0.8866159237244975,0.8429602999458701
0.18715568799659116,0.014769328585380026,2.3443976054244178e-06,7.045366028221764,0.8132568849369027,0.8372111173118476
0.18949513409654856,0.014687311183844134,1.2975653817895562e-06,6.8944480707600055,0.7459674849471541,0.8314552803654314
0.19183458019650595,0.014604828789654528,7.826068835469296e-07,6.724694833938752,0.6842456512737222,0.8256962342520114
0.19417402629646335,0.014521847917198447,4.959607101166675e-07,6.5321732838316615,0.6276307568984878,0.8199386949657562
0.19651347239642075,0.014438337806122406,3.2463336914190217e-07,6.312431010735957,0.5757002628418776,0.8141890019744253
0.19885291849637815,0.014354278338440895,2.1747671363975475e-07,6.06078158740821,0.5280665824539084,0.8084555445187218
0.20119236459633555,0.014269674441500964,1.4833295551820817e-07,5.77287552244388,0.48437419450911223,0.8027492760182261
0.20353181069629295,0.01418457931745302,1.0268441887953018e-07,5.445601362302498,0.44429699212005597,0.7970843465379815
0.20587125679625035,0.014099128422598261,7.1999879311424e-08,5.078300661413611,0.40753584990218467,0.7914788606688382
0.20821070289620774,0.01401358358539372,5.105632672821423e-08,4.674085381902467,0.3738163919682821,0.7859557890651273
0.21055014899616514,0.013928382415632174,3.6558952864976984e-08,4.240827905480726,0.34288694438171713,0.780544061196577
0.21288959509612254,0.013844183719312553,2.6382461725343495e-08,3.791271115690006,0.314516656913416,0.7752798791216692
0.21522904119607994,0.01376190007625551,1.913212453762019e-08,3.3419108650882823,0.28849378014546107,0.7702083545864424
0.21756848729603734,0.013682720880284893,1.3879484869687603e-08,2.910867930709511,0.2646240850940969,0.7653859367618194
0.21990793339599474,0.013608151342770542,9.999892074089144e-09,2.5153356922313996,0.2427294135742648,0.7608853767719708
0.22224737949595214,0.013540090939221552,7.075414123478109e-09,2.1684006946575995,0.2226463484962911,0.7568070300984372
0.22458682559590953,0.013480873780871178,4.838292472729306e-09,1.8742348856724418,0.20422499417672352,0.7532961612637399
0.22692627169586693,0.013432976678488216,3.1205041229587083e-09,1.6253236937092645,0.18732785756388914,0.7505374510397156
0.22926571779582433,0.013398016300892442,1.7916103095123221e-09,1.410300757127044,0.17182882202880523,0.7486685996341823
0.23160516389578173,0.013375464940363456,7.267914914596097e-10,1.2245768733488933,0.15761220606143853,0.7476547060081301
0.23394460999573913,0.013361563427180164,3.591478210547283e-08,1.0449921703858116,0.1445718998495821,0.747297771183256
0.2344623067529246,0.013359042151837221,3.5046012746712475e-08,0.9972591109524584,0.14183526171389227,0.747297771183255
0.23498000351011006,0.013357694390138064,3.4195828726998355e-08,0.9716540416584553,0.1391504296749425,0.7472999286693986
0.23549770026729552,0.013356647881936039,3.336516455487035e-08,0.9494774548732161,0.13651642301426922,0.7473116759184375
0.236015397024481,0.013355929901621905,3.255384975512442e-08,0.930741209614383,0.13393227957898324,0.7473345179732771
0.23653309378166645,0.013355603694683402,3.176208022894388e-08,0.9159301950558387,0.13139705543029273,0.7473707041611289
0.23705079053885192,0.013355781930878339,3.099076583245373e-08,0.9060437100149618,0.12890982449870653,0.7474239919929312
0.23756848729603738,0.013356622307849897,3.0242267928673956e-08,0.9021247476981167,0.12646967824577182,0.7475012809086022
0.23808618405322285,0.013358408263470645,2.9522543131884124e-08,0.9058808115238414,0.12407572533222912,0.7476160904110836
0.23860388081040831,0.013361454595662958,2.884592298524321e-08,0.9153591974256424,0.12172709129248965,0.7477994960354878
0.23912157756759378,0.01336609766452187,2.823407331852161e-08,0.9191852777565768,0.11942291821536602,0.7481223868638681
0.23963927432477924,0.013373387538186364,2.7700566103121866e-08,0.9135355871299836,0.11716236443082668,0.7486767035101911
0.2401569710819647,0.013384169845277905,2.7243809680071465e-08,0.9036148148647026,0.11494460420238833,0.7495031123960851
0.24067466783915017,0.013398668535282593,2.6855766913459727e-08,0.8926482039179022,0.11276882742519792,0.7506049352588319
0.24119236459633564,0.013416853670508808,2.6528003478583623e-08,0.881975879452648,0.1106342393299949,0.7519745202964173
0.2417100613535211,0.01343861628738382,2.6253146083777293e-08,0.8721143004683661,0.10854006019279222,0.7536017562980577
0.24222775811070657,0.01346382375101117,2.6025015354934497e-08,0.8632458176405592,0.10648552505008096,0.7554761591013703
0.24274545486789204,0.01349233939821948,2.583849992988104e-08,0.855404992059528,0.10446988341942864,0.7575875613547082
0.2432631516250775,0.013524029746961975,2.5689386528624272e-08,0.8485599815798811,0.10249239902536425,0.7599263111378517
0.24378084838226297,0.01355876724391597,2.5574204762105897e-08,0.8426488524737773,0.10055234953044978,0.7624833244487865
0.24429854513944843,0.013596431127980096,2.5490096820167053e-08,0.8375978110789641,0.09864902627143919,0.7652500722340565
0.2448162418966339,0.013636907554699266,2.543471217183056e-08,0.8333302928817778,0.09678173400042972,0.7682185503643821
0.24533393865381936,0.013680089387017105,2.5406122989567475e-08,0.8297714512019833,0.09494979063091162,0.7713812441119731
0.24585163541100483,0.013725875832271332,2.5402756238827005e-08,0.8268503651058761,0.09315252698862331,0.7747310909499782
0.2463693321681903,0.01377417202226076,2.5423339142702186e-08,0.8245010219520429,0.0913892865671221,0.7782614444801192
0.24688702892537576,0.013824888582710373,2.5466855328236926e-08,0.8226626344358098,0.08965942528798083,0.7819660405744839
0.24740472568256122,0.013877941214657718,2.5532509519085428e-08,0.8212795978056917,0.08796231126552324,0.7858389660961153
0.2479224224397467,0.013933250298434518,2.5619699100888914e-08,0.8203012578695273,0.08629732457601241,0.7898746302437382
0.24844011919693215,0.013990740524775482,2.5727991251646912e-08,0.8196815864350695,0.08466385703120842,0.7940677384208135
0.24895781595411762,0.014050340554328787,2.5857104615136818e-08,0.8193788193086122,0.08306131195621157,0.7984132684647616
0.24947551271130308,0.01411198270512108,2.600689471805273e-08,0.819355088235498,0.08148910397151145,0.8029064490481325
0.24999320946848855,0.014175602666652465,2.6177342505341206e-08,0.8195760642168236,0.07994665877916125,0.8075427400610491
0.250510906225674,0.014241139238878757,2.636854550454203e-08,0.8200106213961852,0.07843341295299991,0.8123178147915421
0.2510286029828595,0.014308534094178465,2.658071123775406e-08,0.8206305258508306,0.07694881373284518,0.8172275437321777
0.251546299740045,0.01437773156039001,2.681415258600484e-08,0.8214101507491522,0.07549231882258285,0.8222679798552522
0.2520639964972305,0.014448678423071265,2.7069284880501314e-08,0.8223262176452352,0.07406339619207777,0.8274353452130937
0.252581693254416,0.014521323745240233,2.734662455250315e-08,0.8233575627526295,0.07266152388283513,0.8327260187336165
0.2530993900116015,0.014595618702982042,2.764678922155419e-08,0.8244849265622759,0.07128618981734046,0.8381365250940896
0.25361708676878697,0.01467151643544149,2.7970499142970825e-08,0.8256907649500733,0.06993689161200892,0.8436635245680659
0.25413478352597246,0.014748971907850218,2.8318579971747456e-08,0.8269590798443517,0.06861313639367575,0.8493038037512547
0.25465248028315796,0.01482794178636064,2.8691966833061002e-08,0.8282752676027,0.06731444061956064,0.8550542670816023
0.25517017704034345,0.01490838432357585,2.909170972070146e-08,0.8296259833071387,0.06604032990064014,0.8609119290778007
0.25568787379752894,0.014990259253770233,2.951898027526036e-08,0.8309990193610253,0.06479033882836431,0.8668739072279399
0.25620557055471443,0.015073527696896403,2.9975080024930245e-08,0.8323831968767387,0.06356401080465322,0.8729374154673532
0.2567232673118999,0.015158152070561589,3.046145020436225e-08,0.8337682684839092,0.06236089787511248,0.8790997581908264
0.2572409640690854,0.01524409600923696,3.097968330242019e-08,0.8351448313348964,0.061180560565405974,0.8853583247498449
0.2577586608262709,0.015331324290037179,3.1531536529109214e-08,0.8365042492072785,0.060022567720726235,0.8917105843906169
0.2582763575834564,0.015419802764475628,3.2118947436921396e-08,0.8378385827548395,0.058886496348304354,0.8981540815931032
0.2587940543406419,0.015509498295650983,3.2744051983619344e-08,0.839140526799428,0.05777193146290129,0.904686431775743
0.2593117510978274,0.015600378700380228,3.340920538516885e-08,0.8404033544589741,0.05667846593522455,0.9113053173311659
0.2598294478550129,0.01569241269586112,3.4117006180007116e-08,0.8416208665598196,0.055605700343214826,0.9180084839689249
0.2603471446121984,0.015785569850427644,3.4870324013050876e-08,0.8427873464243156,0.05455324282614825,0.9247937373329438
0.26086484136938387,0.015879820538074657,3.5672331754620163e-08,0.843897519273385,0.05352070894150127,0.9316589398732528
0.26138253812656936,0.015975135896425928,3.652654269827043e-08,0.8449465155636803,0.0525077215245255,0.9386020079511208
0.26190023488375486,0.016071487787839706,3.7436853740528e-08,0.8459298380379542,0.051513910550481816,0.9456209091562292
0.26241793164094035,0.01616884876339567,3.840759564241093e-08,0.8468433320250115,0.050538912999483265,0.9527136598192024
0.26293562839812584,0.016267192029523092,3.9443591717290625e-08,0.8476831586493577,0.04958237272389734,0.9598783227034516
0.26345332515531134,0.016366491417052584,4.0550226596238934e-08,0.8484457706446561,0.0486439403182597,0.9671130048618107
0.26397102191249683,0.016466721352494728,4.173352710843413e-08,0.8491278904994963,0.04772327299165163,0.9744158556448117
0.2644887186696823,0.016567856831366475,4.3000257804445316e-08,0.8497264906887364,0.0468200344424952,0.9817850648486377
0.2650064154268678,0.016669873393402476,4.4358034276385656e-08,0.8502387757747043,0.04593389473572027,0.9892188609918453
0.2655241121840533,0.0167727470994058,4.581545822574383e-08,0.8506621645016202,0.045064530182259054,0.9967155097109194
0.2660418089412388,0.016876454506842144,4.73822789094542e-08,0.8509942291798156,0.04421162322082433,1.0042733122437042
0.2665595056984243,0.016980972643876893,4.906958738295487e-08,0.8512326674615598,0.04337486230192886,1.0118906036620017
0.2670772024556098,0.017086279001298915,5.089005314732523e-08,0.8513754581634828,0.04255394177410395,1.0195657516315435
0.2675948992127953,0.01719235151433076,5.2858212365485106e-08,0.851420756333592,0.041748561772276614,1.0272971555339716
0.26811259596998077,0.017299168545881365,5.4990821357120226e-08,0.8513668712131753,0.040958428108265006,1.0350832453436856
0.26863029272716626,0.01740670887147047,5.730729369069075e-08,0.851212257061683,0.040183252163353736,1.042922480571847
0.26914798948435176,0.01751495166515877,5.983024486220917e-08,0.8509555047657873,0.03942275078291108,1.0508133492799836
