Time [s],Lmtc [m],STIM [ ],Fsee [N],Gamma [ ],Lcerel [ ]
0.0,0.020589089105166984,0.9999998293450613,1.0933435570808554,0.06898802786004711,1.2739281090786452
0.0021901414208545657,0.020629527665581945,0.9999998152606665,2.0291141126212655,0.10523469406287418,1.2739281090676577
0.004380282841709131,0.02061758117683255,0.9999997639532362,3.075935744885937,0.14007018446833108,1.270494712022903
0.0065704242625636965,0.020575351837927486,0.9999996871642267,3.8985220474149913,0.17354943830361283,1.265699994371095
0.008760565683418263,0.020516766130244505,0.9999995900420227,4.49381917359276,0.2057252563286663,1.2602984504558983
0.010950707104272829,0.02044927065770435,0.9999994772491629,4.923564492576981,0.23664838383549688,1.2546080853291783
0.013140848525127395,0.02037692457695735,0.9999993530699658,5.246439640850129,0.26636759065386767,1.2487777160216356
0.015330989945981961,0.020301930943546966,0.9999992212730776,5.501707689164954,0.2949297480463627,1.2428830487691125
0.017521131366836525,0.0202255119180678,0.9999990850406318,5.713315118660184,0.32237990260437843,1.236965237968643
0.01971127278769109,0.020148367349849303,0.9999989469712285,5.895659301852161,0.3487613472643961,1.2310477501064958
0.021901414208545657,0.020070910643852337,0.9999988091274977,6.057523679680696,0.374115689559527,1.22514437345381
0.024091555629400224,0.019993392268440095,0.9999986731039004,6.204404846370295,0.39848291721570184,1.219263307532689
0.02628169705025479,0.019915966556098195,0.9999985400994382,6.339843511715336,0.4219014611966722,1.2134093827208423
0.028471838471109356,0.01983872917576701,0.9999984109868619,6.466188412359921,0.4444082562973401,1.207585328225595
0.030661979891963922,0.01976173892325995,0.9999982863744306,6.585042611048097,0.4660387993807303,1.2017925280562871
0.032852121312818484,0.019685030824675365,0.9999981666588857,6.697530331542473,0.48682720535005053,1.1960314881213596
0.03504226273367305,0.01960862425898396,0.999998052069728,6.80446046862193,0.5068062609436819,1.1903021335719683
0.03723240415452762,0.01953252813116158,0.9999979427055601,6.906429254019714,0.5260074764375136,1.1846040028440417
0.03942254557538218,0.019456744246278586,0.9999978385635354,7.003886241933847,0.5444611353357912,1.1789363769139904
0.04161268699623675,0.01938126955634738,0.9999977395629829,7.097177663867648,0.562196342128519,1.1732983668502892
0.043802828417091315,0.019306097683524717,0.9999976455642091,7.1865755081034965,0.5792410681904643,1.1676889739061462
0.04599296983794588,0.019231219968526517,0.9999975563833582,7.272297403689801,0.5956221958939276,1.16210713117502
0.04818311125880045,0.01915662620139002,0.9999974718040759,7.354520463550193,0.6113655610046709,1.1565517326547765
0.05037325267965501,0.01908230513597229,0.9999973915865994,7.4333910854351295,0.6264959934277149,1.151021653585911
0.05256339410050958,0.019008244854904825,0.9999973154747795,7.509032001219073,0.6410373563671569,1.1455157646661462
0.054753535521364145,0.01893443302970199,0.999997243201447,7.581547422665623,0.6550125839616653,1.1400329419216084
0.05694367694221871,0.018860857106457768,0.9999971744924514,7.6510268503756445,0.66844371745494,1.1345720734697884
0.05913381836307328,0.01878750443816048,0.9999971090696348,7.717547930530198,0.6813519399581218,1.1291320640421922
0.061323959783927844,0.018714362378351734,0.9999970466529488,7.781178624284474,0.6937576098589273,1.1237118378833177
0.0635141012047824,0.01864141834656626,0.9999969869618784,7.841978874713786,0.7056802929301639,1.118310340468354
0.06570424262563697,0.018568659873029764,0.9999969297162999,7.900001902065785,0.7171387931882333,1.1129265393596663
0.06789438404649153,0.01849607462802358,0.999996874636871,7.955295220909295,0.728151182550268,1.1075594244353055
0.0700845254673461,0.018423650384492174,0.9999968214450297,8.007898511144544,0.738734829336656,1.1022080076605072
0.07227466688820067,0.01835137155386361,0.999996769862654,8.057659468234743,0.7489064256638878,1.0968713225280584
0.07446480830905523,0.018279224221205613,0.9999967196114251,8.104500004549507,0.7586820137709174,1.0915484232605477
0.0766549497299098,0.01820719680832698,0.9999966704119138,8.14845366011365,0.7680770113205475,1.086238383843297
0.07884509115076437,0.01813527789023316,0.9999966219824065,8.18955080461828,0.7771062357157292,1.0809402969388953
0.08103523257161893,0.018063456187871803,0.9999965740374683,8.227818932427864,0.7857839274691217,1.0756532727208814
0.0832253739924735,0.017991720558815896,0.9999965262862341,8.26328290865835,0.7941237726627596,1.0703764376541673
0.08541551541332806,0.017920059986391842,0.9999964784304044,8.29596517560508,0.8021389245332405,1.0651089332422143
0.08760565683418263,0.01784846356763256,0.9999964301619119,8.325885926746967,0.8098420242164692,1.0598499147553362
0.0897957982550372,0.017776920500337367,0.9999963811602124,8.353063253994792,0.8172452206846647,1.0545985499501125
0.09198593967589176,0.017705420069446084,0.9999963310891337,8.377513272658511,0.8243601899070626,1.0493540177866294
0.09417608109674633,0.017633951632876902,0.9999962795932011,8.399250227687949,0.8311981532645214,1.0441155071476946
0.0963662225176009,0.01756250460693267,0.9999962262933342,8.418286584025797,0.8377698952470554,1.0388822155622308
0.09855636393845546,0.01749106845134504,0.9999961707817757,8.43463310335137,0.8440857804621944,1.0336533479335033
0.10074650535931003,0.01741963265399795,0.9999961126160827,8.448298909051081,0.8501557699809604,1.0284281152716455
0.10293664678016459,0.017348186715349916,0.999996051311954,8.459291540899722,0.8559894370472273,1.0232057334289977
0.10512678820101916,0.017276720132556052,0.9999959863346105,8.467617000654508,0.8615959821751903,1.0179854218359825
0.10731692962187372,0.017205222383276132,0.999995917088354,8.473279789535459,0.8669842476587176,1.0127664022346154
0.10950707104272829,0.017133682909141988,0.999995842903823,8.476282938379718,0.8721627315154145,1.0075478974061884
0.11169721246358286,0.017062091249696546,0.9999957630224519,8.476636260069307,0.8771396008873045,1.0023291298891972
0.11388735388443742,0.01699043788490736,0.9999956765824255,8.474396712078766,0.881922704919191,0.9971093294340949
0.11607749530529199,0.016918708928516615,0.9999955826039146,8.469275055914364,0.8865195871350787,0.991887871888997
0.11826763672614655,0.016846896515988606,0.9999954799531829,8.461221178044482,0.8909374973321785,0.9866642545277617
0.12045777814700112,0.016774993654095266,0.9999953673014192,8.450231830558584,0.8951834030104499,0.9814379775664932
0.12264791956785569,0.016702993245941683,0.9999952430765291,8.436302702278208,0.8992640003555582,0.9762085371652904
0.12483806098871025,0.016630888083075397,0.999995105400453,8.419428417807236,0.90318572479236,0.9709754248892508
0.1270282024095648,0.01655867083712259,0.9999949520064695,8.399602533716541,0.9069547611250771,0.9657381271483891
0.12921834383041936,0.016486334050930047,0.9999947801285743,8.376817531952126,0.9105770532794661,0.9604961246151625
0.1314084852512739,0.01641387012918685,0.9999945863512442,8.351064810524404,0.9140583136613912,0.955248891618078
0.13359862667212846,0.01634127132849489,0.9999943664019425,8.322334671508267,0.9174040321452015,0.9499958955096316
0.13578876809298301,0.016268529746852202,0.9999941148591459,8.290616306357714,0.920619484704082,0.9447365960065988
0.13797890951383757,0.016195637312507914,0.9999938247327962,8.255897778514809,0.9237097416930421,0.9394704445004661
0.14016905093469212,0.016122585772141908,0.9999934868469931,8.21816600326967,0.9266796757930881,0.9341968833355372
0.14235919235554667,0.016049366678316652,0.999993088906852,8.17740672480558,0.9295339696220776,0.9289153450519944
0.14454933377640122,0.015975971376141793,0.9999926140433731,8.133604490340874,0.9322771230129349,0.9236252515909009
0.14673947519725578,0.01590239098908548,0.9999920384605736,8.086742621255366,0.9349134599518537,0.9183260134578394
0.14892961661811033,0.015828616403858353,0.999991327464587,8.036803181063956,0.9374471351547781,0.9130170288415355
0.15111975803896488,0.01575463825428763,0.9999904284084523,7.9837669400705025,0.9398821402332449,0.9076976826834602
0.15330989945981943,0.015680446904089103,0.9999892573419142,7.927613336498743,0.9422223093455057,0.9023673456940136
0.15550004088067398,0.015606032428433734,0.9999876716686208,7.868320433845131,0.9444713241078775,0.8970253733104429
0.15769018230152854,0.01553138459419321,0.9999854080787287,7.805864874112554,0.94663271725037,0.8916711045912151
0.1598803237223831,0.015456492838733446,0.9999819204938086,7.740221826412852,0.9487098737135732,0.8863038610410805
0.16207046514323764,0.015381346247106461,0.9999758611272549,7.671364930042045,0.9507060253936844,0.8809229453607154
0.1642606065640922,0.015305933527474318,0.9999627560072872,7.599266230505994,0.9526242258886833,0.8755276401150578
0.16645074798494675,0.01523024298490294,0.9999134299419579,7.523896120555817,0.9544672357307831,0.8701172063180621
0.1686408894058013,0.015154341435529232,8.840605960707082e-05,7.449259668015643,0.9562365721242896,0.8646908819743375
0.17083103082665585,0.015077650944178515,1.6349713726154823e-05,7.3432947216520255,0.881971347931566,0.8592525119718665
0.1730211722475104,0.015000632890280146,7.3953283619887865e-06,7.226199722009954,0.8134688602217074,0.8538074646581192
0.17521131366836495,0.014923264597458581,4.10982482427869e-06,7.095784442645724,0.7502864065723653,0.8483577056518774
0.1774014550892195,0.014845521375779448,2.507149930902834e-06,6.9493748297278,0.6920112092707709,0.8429059582486017
0.17959159651007406,0.01476737756441557,1.6133354928496963e-06,6.783789714267905,0.6382622422988946,0.8374559090304468
0.1817817379309286,0.014688808945031512,1.0753042486044976e-06,6.595378603383656,0.5886879990663227,0.8320124617831225
0.18397187935178316,0.014609797528291443,7.353826043149836e-07,6.380167647586333,0.5429642478008047,0.8265820491746576
0.18616202077263772,0.014530340073787867,5.134286364986497e-07,6.134170907229814,0.5007919282341055,0.8211730125754968
0.18835216219349227,0.014450461993719695,3.650074932475068e-07,5.853921810600625,0.46189520250133786,0.8157960616455787
0.19054230361434682,0.014370238214405941,2.639292884943335e-07,5.537247575116679,0.4260196541823944,0.8104648266481657
0.19273244503520137,0.014289821723803487,1.9406016333058382e-07,5.184230046915536,0.3929306258712435,0.8051965175841764
0.19492258645605592,0.014209478570072246,1.4513205635341825e-07,4.798168705289599,0.36241168523360273,0.8000127043739904
0.19711272787691048,0.01412962515534954,1.1044892303517031e-07,4.38622655588693,0.33426320988361685,0.794940230617598
0.19930286929776503,0.014050861114270716,8.556243618662626e-08,3.9593953721208597,0.30830108199792333,0.790012274450744
0.20149301071861958,0.013973991824956174,6.747404760131427e-08,3.531579298408414,0.28435548421887635,0.7852696088907856
0.20368315213947413,0.013900042352491487,5.413767643766721e-08,3.1179650497558153,0.26226978902047565,0.7807623339381495
0.20587329356032869,0.013830278406292522,4.4144045515062325e-08,2.7331013233205756,0.2418995343009074,0.7765530841158272
0.20806343498118324,0.01376625107767988,3.6524336499000494e-08,2.388682289877718,0.22311147851840882,0.7727239009084178
0.2102535764020378,0.013709827653559655,3.063247063001754e-08,2.090345784844836,0.20578272920142895,0.7693871891311982
0.21244371782289234,0.013663037441524896,2.6051991312228793e-08,1.8347595304294417,0.18979993914005996,0.7666867886520647
0.2146338592437469,0.013627467070416255,2.2479452918121575e-08,1.6126361551926205,0.17505856500370623,0.7647525909445417
0.21682400066460145,0.013603279972729712,1.9631435643884723e-08,1.417512787304934,0.1614621835343908,0.7636066142226406
0.219014142085456,0.013589089105167183,1.143801561203721e-07,1.2538313385627755,0.14892186084551695,0.7631234733904614
0.21950757465845636,0.013586140198995355,1.1213492822805663e-07,1.1927260430769213,0.14623380137690073,0.7631234733879926
0.2200010072314567,0.013583254926921431,1.0993025864166105e-07,1.1344079472267343,0.14359426499556963,0.7631235053026885
0.22049443980445707,0.013580442156894166,1.0776542913775329e-07,1.0789571084219134,0.14100237579456304,0.7631235560020708
0.22098787237745743,0.01357800641744723,1.056407289729499e-07,1.0320428703647546,0.13845727367821925,0.7631236715146111
0.22148130495045779,0.013576644231027089,1.0355928013108844e-07,1.005727683526036,0.13595811407677777,0.7631258036403907
0.22197473752345814,0.013575600561842632,1.0152330076688262e-07,0.9835208445572953,0.13350406766616657,0.7631363554761306
0.2224681700964585,0.013574856121107958,9.953250357672415e-08,0.9645427834022481,0.13109432009278082,0.763156901327295
0.22296160266945886,0.013574462610262236,9.758719010802182e-08,0.9491814869975735,0.1287280717032,0.7631893103656454
0.22345503524245922,0.013574503359055792,9.568897904785626e-08,0.9381151240958236,0.12640453727884066,0.7632365984013116
0.22394846781545957,0.013575113657712608,9.384209838843974e-08,0.932426784018389,0.12412294577541114,0.7633039649215818
0.22444190038845993,0.01357651405308372,9.205678898646047e-08,0.9336211743666064,0.12188254006709423,0.7634012289819507
0.2249353329614603,0.01357900414118584,9.035796964552299e-08,0.9419362086956139,0.1196825766954075,0.7635493272759742
0.22542876553446065,0.013582825800938706,8.879292693640694e-08,0.949740903828122,0.11752232562275491,0.763796667483176
0.225922198107461,0.013588643908424397,8.740693952961157e-08,0.9480239220975102,0.11540106999056512,0.764227604699935
0.22641563068046136,0.01359746442865829,8.621158611662852e-08,0.9397572914291045,0.11331810588135564,0.764903631241481
0.22690906325346172,0.013609721447141739,8.519276829156884e-08,0.9291969857961001,0.11127274208452079,0.7658395400337834
0.22740249582646208,0.01362547545400994,8.433066841161843e-08,0.9183331973369018,0.10926429986649133,0.7670318173902783
0.22789592839946243,0.013644657825330708,8.360678620289362e-08,0.9079859888627119,0.10729211274540414,0.7684721388223221
0.2283893609724628,0.013667158399248681,8.300526483140666e-08,0.8984810243624297,0.10535552626996571,0.7701511062918228
0.22888279354546315,0.013692855308326339,8.251283725438703e-08,0.8899274102645703,0.10345389780233187,0.7720593358087344
0.2293762261184635,0.013721626024225927,8.211848637647732e-08,0.8823347169274993,0.10158659630490584,0.774187802977579
0.22986965869146386,0.013753351694788703,8.181308537440453e-08,0.8756658527304383,0.09975300213097833,0.7765279496217125
0.23036309126446422,0.0137879188277716,8.158908173882756e-08,0.8698625020819464,0.09795250681914089,0.7790717041622686
0.23085652383746458,0.013825219837560253,8.144023471710244e-08,0.8648579361759561,0.0961845128914044,0.7818114687247345
0.23134995641046494,0.013865153078906924,8.136140140221862e-08,0.8605836360906624,0.09444843365495698,0.784740093410006
0.2318433889834653,0.013907622645220805,8.134836364437022e-08,0.8569727281277555,0.09274369300749682,0.7878508462491989
0.23233682155646565,0.013952538062442522,8.139768823216957e-08,0.8539617136585281,0.09106972524607573,0.7911373825699415
0.232830254129466,0.013999813943070455,8.150661392283316e-08,0.8514912626428096,0.0894259748793907,0.7945937154281915
0.23332368670246637,0.01404936963295269,8.167296011369511e-08,0.8495064862178587,0.08781189644346232,0.7982141878104486
0.23381711927546672,0.014101128867360264,8.189505301282371e-08,0.8479569199263086,0.08622695432063804,0.8019934468595173
0.23431055184846708,0.014155019444448231,8.217166604032182e-08,0.8467963498075246,0.08467062256186185,0.8059264201577495
0.23480398442146744,0.014210972919703063,8.250197188891173e-08,0.8459825580908024,0.08314238471215124,0.81000829399593
0.2352974169944678,0.01426892432252445,8.288550422253425e-08,0.8454770333833647,0.08164173363922325,0.814234493507485
0.23579084956746815,0.01432881189475783,8.332212742500294e-08,0.8452446715639104,0.08016817136521366,0.818600664528701
0.2362842821404685,0.0143905768502865,8.381201315306267e-08,0.8452534824472188,0.07872120890143322,0.8231026570419889
0.23677771471346887,0.01445416315443851,8.435562272035412e-08,0.8454743105591979,0.07730036608610638,0.8277365100634073
0.23727114728646923,0.014519517321813172,8.495369455716546e-08,0.8458805742798918,0.07590517142503887,0.8324984378436933
0.23776457985946958,0.014586588231097906,8.560723616822718e-08,0.8464480251370208,0.0745351619351608,0.8373848172617353
0.23825801243246994,0.014655326955477666,8.631752015710404e-08,0.8471545275481107,0.07318988299089435,0.8423921762995591
0.2387514450054703,0.014725686607306675,8.708608400873457e-08,0.84797985843939,0.07186888817329444,0.8475171834978642
0.23924487757847065,0.014797622195797633,8.791473342752413e-08,0.8489055256838758,0.07057173912191254,0.852756638300603
0.239738310151471,0.014871090496576127,8.880554912208695e-08,0.8499146040547909,0.06929800538933488,0.8581074622058721
0.24023174272447137,0.014946049932041575,8.97608970133715e-08,0.8509915872927619,0.0680472642983462,0.8635666906484416
0.24072517529747173,0.015022460461567022,9.078344192402643e-08,0.8521222548782452,0.06681910080167225,0.8691314655465857
0.24121860787047208,0.015100283480656264,9.187616488662654e-08,0.8532935521473368,0.06561310734425456,0.874799028452515
0.24171204044347244,0.015179481728256882,9.304238428974693e-08,0.8544934824661181,0.06442888372801127,0.8805667142516765
0.2422054730164728,0.015260019201502405,9.428578116679277e-08,0.8557110102708169,0.0632660369790398,0.8864319453616016
0.24269890558947316,0.015341861077224564,9.561042902602895e-08,0.8569359738789608,0.06212418121721735,0.8923922263857995
0.24319233816247351,0.015424973639638621,9.702082872478049e-08,0.8581590070745397,0.061002937528155325,0.8984451391825431
0.24368577073547387,0.015509324213661224,9.852194901011638e-08,0.8593714685644271,0.059901933837466365,0.9045883383122945
0.24417920330847423,0.015594881103371231,1.0011927348700146e-07,0.860565378492077,0.0588208047873012,0.910819546831017
0.2446726358814746,0.015681613535170065,1.0181885493833739e-07,0.8617333612766287,0.05775919161511557,0.9171365523997491
0.24516606845447494,0.01576949160524009,1.0362737811618897e-07,0.8628685941209532,0.056716742034626,0.9235372036836573
0.2456595010274753,0.015858486230936893,1.0555223235811877e-07,0.8639647606005117,0.05569311011891603,0.9300194070162836
0.24615293360047566,0.015948569105785505,1.0760159566742189e-07,0.8650160088068243,0.05468795618565385,0.9365811233070102
0.24664636617347602,0.01603971265778122,1.0978453224448805e-07,0.8660169135749782,0.05370094668438306,0.9432203651717828
0.24713979874647637,0.016131890010723238,1.1211110588565298e-07,0.8669624423744703,0.05273175408585003,0.9499351942689934
0.24763323131947673,0.016225074948334417,1.1459251219786294e-07,0.8678479244874383,0.05178005677333122,0.9567237188240659
0.2481266638924771,0.016319241880942692,1.172412332411297e-07,0.8686690231381439,0.050845538935924174,0.963584091327785
0.24862009646547745,0.016414365814520215,1.200712190439705e-07,0.8694217102732175,0.04992789046376801,0.9705145063947516
0.2491135290384778,0.016510422321894633,1.2309810148991735e-07,0.8701022437239636,0.04902680684515807,0.9775131987695728
0.24960696161147816,0.016607387515963096,1.263394474125127e-07,0.8707071465102518,0.04814198906552226,0.9845784414694634
0.25010039418447855,0.016705238024754987,1.2981505945173128e-07,0.8712331880707473,0.047273143508225056,0.9917085440529542
0.25059382675747893,0.01680395096786927,1.335473353366551e-07,0.8716773613940854,0.04641998185716786,0.998901851005283
0.2510872593304793,0.016903503929975968,1.3756169802173356e-07,0.8720368000626667,0.045582221001153916,1.0061567401595217
0.2515806919034797,0.01700387493916047,1.41887115790028e-07,0.8723088328545342,0.044759582939987386,1.01347162089695
0.2520741244764801,0.017105042457352823,1.4655673651183644e-07,0.872491063555201,0.04395179469227682,1.020844933123227
0.2525675570494805,0.01720698536024436,1.5160866174913503e-07,0.872581272452034,0.04315858820491432,1.028275146220588
