Time [s],Lmtc [m],STIM [ ],Fsee [N],Gamma [ ],Lcerel [ ]
0.0,0.019867045441797144,0.9999998609508025,1.1202318265812348,0.07340247430510775,1.2211991250497871
0.001631389808744564,0.01989853457601223,0.9999998567528213,1.831734601584095,0.10040950041476226,1.2211990677352744
0.003262779617489128,0.019904078813775195,0.9999998372559384,2.6802819995961262,0.12662936741607903,1.2193955422424518
0.004894169426233692,0.019885955849562938,0.9999998057394324,3.436501423573497,0.15208501775819933,1.2163891258362713
0.006525559234978256,0.019853326377282977,0.9999997641346299,4.069306396212977,0.17679872529485371,1.212738881035373
0.00815694904372282,0.019811152247814566,0.9999997138167498,4.57435224537512,0.20079211473225841,1.208719324804494
0.009788338852467385,0.019762661772559482,0.9999996560492017,4.970907835168834,0.2240861805332536,1.204478556812342
0.01141972866121195,0.01970998730747006,0.9999995920193128,5.284015144095658,0.24670130528340256,1.200101145706103
0.013051118469956515,0.019654524750559565,0.9999995228265678,5.535555791365509,0.2686572775228265,1.1956377454030858
0.01468250827870108,0.01959718904829214,0.9999994494662967,5.7422007999897025,0.28997330905796004,1.1911200117151506
0.016313898087445645,0.019538585974407628,0.9999993728200481,5.915965671459438,0.3106680517682572,1.1865684550408342
0.01794528789619021,0.019479122554275932,0.9999992936535351,6.065337038817102,0.3307596139227593,1.1819967642413833
0.019576677704934774,0.01941907677070744,0.9999992126202831,6.1962908965770005,0.3502655760210338,1.1774142930949847
0.02120806751367934,0.019358641533261924,0.9999991302688649,6.3130595467456345,0.36920300617251145,1.1728275484587538
0.022839457322423904,0.019297952668299135,0.9999990470520274,6.418671167718205,0.3875884750277827,1.1682411135472592
0.02447084713116847,0.019237106994579076,0.9999989633365086,6.515319438681403,0.405438070274964,1.1636582393640047
0.026102236939913034,0.01917617419399855,0.9999988794127683,6.604614823895869,0.42276741071383395,1.1590812344459043
0.0277336267486576,0.01911520474615548,0.9999987955041552,6.6877557453140835,0.43959165992004123,1.1545117282197899
0.029365016557402163,0.019054235325879295,0.9999987117752576,6.765646008207473,0.45592553951131704,1.1499508529512619
0.030996406366146728,0.018993292537766354,0.9999986283393196,6.838976140571331,0.47178334202726685,1.1453993719483884
0.03262779617489129,0.01893239554203431,0.9999985452646959,6.9082803590786614,0.4871789434339802,1.1408577714870678
0.03425918598363585,0.01887155792891911,0.9999984625803702,6.973976927771549,0.5021258152643612,1.136326327753917
0.03589057579238041,0.01881078907558376,0.9999983802805931,7.036397084896636,0.5166370364047731,1.131805156272077
0.037521965601124974,0.01875009514124096,0.9999982983287016,7.095806014295976,0.5307253045382809,1.1272942488421975
0.039153355409869535,0.01868947980571453,0.9999982166601915,7.152418218842189,0.5444029472544722,1.1227935014523314
0.040784745218614096,0.018628944823608256,0.9999981351851016,7.206408911167164,0.557681932835559,1.1183027355664272
0.04241613502735866,0.018568490444277427,0.9999980537897688,7.257922540179499,0.5705738807281695,1.1138217144981553
0.04404752483610322,0.018508115732981775,0.9999979723379949,7.30707923614965,0.5830900717099777,1.1093501560957528
0.04567891464484778,0.018447818818469363,0.9999978906716583,7.353979727946726,0.5952414577600449,1.10488774262933
0.04731030445359234,0.0183875964163725,0.9999978086107917,7.398675040257836,0.6070386716414932,1.1004341285366142
0.0489416942623369,0.01832744220449428,0.9999977259531264,7.4410782241210605,0.6184920362048809,1.0959889465150763
0.050573084071081464,0.018267352152118804,0.9999976424730987,7.481232088594637,0.6296115734204044,1.0915518123269858
0.052204473879826026,0.018207322241690176,0.9999975579202872,7.519191210736646,0.6404070131468141,1.0871223285953218
0.05383586368857059,0.018147348141118985,0.9999974720172369,7.555002959101852,0.6508878016447023,1.0827000878030246
0.05546725349731515,0.018087425262618168,0.999997384456603,7.588708643160466,0.6610631098415943,1.0782846746593424
0.05709864330605971,0.018027548809502338,0.9999972948975198,7.620344438647866,0.6709418413560608,1.0738756679603683
0.05873003311480427,0.01796771381341331,0.9999972029610664,7.649942137174913,0.6805326402878475,1.0694726420430631
0.06036142292354883,0.017907915163882314,0.9999971082246665,7.6775297570648835,0.6898438987808188,1.065075167910818
0.061992812732293394,0.017848147631720344,0.9999970102152002,7.703132043888457,0.6988837643653054,1.060682814092242
0.06362420254103796,0.01778840588740801,0.9999969084005476,7.726770882771062,0.7076601470862489,1.056295147282172
0.06525559234978252,0.017728684515410008,0.9999968021791904,7.748465639696184,0.7161807264233364,1.0519117328039862
0.06688698215852709,0.01766897802514845,0.9999966908673888,7.768233445324495,0.7244529580091384,1.0475321349245237
0.06851837196727166,0.017609280859220127,0.9999965736832915,7.786089432003019,0.7324840801510626,1.0431559170467375
0.07014976177601623,0.01754958739932622,0.9999964497271321,7.802046932438235,0.7402811201627488,1.0387826418003339
0.0717811515847608,0.01748989197029027,0.9999963179563714,7.816117646795322,0.7478509005103544,1.0344118710467118
0.07341254139350537,0.017430188842466873,0.9999961771542496,7.828311783647068,0.7552000447789691,1.0300431658113767
0.07504393120224993,0.017370472232784914,0.9999960258896378,7.838638179142419,0.7623349834642151,1.0256760861544485
0.0766753210109945,0.017310736304621738,0.9999958624652732,7.847104397931471,0.7692619595938722,1.021310190987811
0.07830671081973907,0.017250975166666568,0.9999956848502757,7.853716818721285,0.7759870341841413,1.0169450378457476
0.07993810062848364,0.01719118287090014,0.9999954905910987,7.858480706807273,0.7825160915349155,1.01258018261451
0.0815694904372282,0.01713135340979217,0.9999952766924364,7.8614002754996095,0.7888548443681122,1.0082151792251117
0.08320088024597277,0.01707148071182857,0.9999950394555689,7.862478687146155,0.7950088388127735,1.0038495793126554
0.08483227005471734,0.01701155952825518,0.9999947742575301,7.861764930784095,0.8009834592401557,0.9994829318013443
0.08646365986346191,0.01695158199514181,0.9999944752526392,7.859142991650793,0.8067839329514538,0.9951148248210997
0.08809504967220648,0.01689154137951037,0.9999941349298165,7.854479035383246,0.8124153347202026,0.9907449547061157
0.08972643948095105,0.01683143372990565,0.9999937434526673,7.847772877200326,0.8178825911893752,0.9863730362183232
0.09135782928969562,0.01677125502385984,0.9999932876768883,7.839023651394267,0.823190485121089,0.9819987810026904
0.09298921909844018,0.016711001166273543,0.9999927496258153,7.828229829408554,0.8283436594938094,0.9776218974548008
0.09462060890718475,0.01665066798744121,0.9999921040377088,7.8153892345336455,0.8333466214357035,0.9732420905712035
0.09625199871592932,0.01659025124073764,0.9999913142508408,7.80049905358035,0.8382037459718606,0.9688590617832874
0.09788338852467389,0.016529746599977767,0.9999903249448119,7.783555845824253,0.8429192795423643,0.9644725087752392
0.09951477833341846,0.016469149656457877,0.9999890485270816,7.764555549452681,0.8474973432062595,0.9600821252864594
0.10114616814216303,0.01640845591568224,0.999987337565112,7.743493485679461,0.8519419353553549,0.9556876008986542
0.1027775579509076,0.0163476607937758,0.999984923137879,7.720364360604559,0.8562569335454342,0.9512886208077067
0.10440894775965216,0.0162867596135782,0.999981257196599,7.695162264739914,0.8604460944772713,0.94688486558033
0.10604033756839673,0.016225747600407972,0.9999750234484253,7.667880669774576,0.8645130493836253,0.9424760108955331
0.1076717273771413,0.016164619877474907,0.9999620648224452,7.638512421401461,0.8684612852948209,0.9380617272712847
0.10930311718588587,0.016103371461043285,0.9999187394247443,7.607049731972569,0.8722940664439668,0.9336416797789261
0.11093450699463044,0.016042053300737536,0.0001731915470170224,7.576374293728652,0.8760138728529268,0.9292155277670967
0.112565896803375,0.015980212904690743,2.1676280608732936e-05,7.521678720693207,0.824822453431487,0.9247854425637787
0.11419728661211957,0.01591822220686434,9.908330767140795e-06,7.4603339296808775,0.7766142649792723,0.9203541522931973
0.11582867642086414,0.015856069420814318,5.731521517412999e-06,7.391390571306137,0.7312231086662749,0.9159222768075601
0.11746006622960871,0.015793741612878064,3.6725868446440236e-06,7.31372972929748,0.6884847754973358,0.9114906404331506
0.11909145603835328,0.015731224818564347,2.4916508633838367e-06,7.226050902399497,0.6482443344236483,0.9070603149806999
0.12072284584709785,0.015668504264755828,1.7531715035512167e-06,7.126864025653794,0.6103558374910629,0.9026326705100819
0.12235423565584241,0.015605564846042901,1.2652348505055628e-06,7.014492922255865,0.5746818417993013,0.8982094355223275
0.12398562546458698,0.015542391989085145,9.304795186781319e-07,6.887096828128396,0.5410929266298188,0.8937927680743544
0.12561701527333155,0.015478973080415886,6.945281545892335e-07,6.742718198481265,0.5094672300838233,0.8893853394628105
0.1272484050820761,0.015415299675348583,5.248313641675062e-07,6.579366042524426,0.4796900097892397,0.8849904322783859
0.12887979489082066,0.015351370736226395,4.0087069409471596e-07,6.395143643352708,0.451653228047367,0.8806120547745477
0.1305111846995652,0.015287197148120182,3.091892581431298e-07,6.18842651263784,0.42525516065467717,0.8762550736060181
0.13214257450830977,0.015222807703217944,2.4068522077035385e-07,5.958089499015703,0.4004000282981313,0.8719253670387124
0.13377396431705432,0.01515825660350259,1.8905105670691155e-07,5.703770255588355,0.37699764933687774,0.8676300006561962
0.13540535412579888,0.015093632286948693,1.4983044860011363e-07,5.426140322094829,0.354963112787284,0.8633774273013969
0.13703674393454343,0.015029067047845856,1.198258627086464e-07,5.12713797629291,0.334216470366544,0.8591777124139849
0.13866813374328799,0.014964746564603998,9.67141233769958e-08,4.810105007680162,0.3146824465013963,0.8550427851470611
0.14029952355203254,0.01490091821178252,7.879002492079827e-08,4.4797711495575525,0.2962901652640729,0.8509867155469351
0.1419309133607771,0.014837897141207146,6.479129162748423e-08,4.142052403517503,0.2789728932535805,0.8470260220749701
0.14356230316952165,0.014776069848065527,5.3776650814939736e-08,3.8036731426689174,0.26266779749507974,0.843180031888047
0.1451936929782662,0.014715896505534518,4.503950759934879e-08,3.471672368241916,0.24731571748267547,0.8394713712464142
0.14682508278701076,0.014657915527942975,3.8046336689808296e-08,3.152878062283283,0.2328609505410306,0.8359267870955926
0.1484564725957553,0.014602755103628524,3.2393243145186e-08,2.853389262682235,0.21925104972877557,0.8325786801622758
0.15008786240449987,0.014551152983103489,2.777663303035653e-08,2.57799921729424,0.20643663355172037,0.8294677328174508
0.15171925221324442,0.014503971732876916,2.397391452708658e-08,2.329462238595515,0.19437120679642386,0.8266461441599658
0.15335064202198898,0.014462169897390931,2.0827419145602733e-08,2.1077981075644185,0.18301099183473102,0.8241783366507183
0.15498203183073353,0.01442666785511392,1.822337957446451e-08,1.9103892345044768,0.17231476978745175,0.8221325725818431
0.15661342163947808,0.01439808258778585,1.606589177582413e-08,1.7334994690998329,0.16224373097063124,0.8205589656779716
0.15824481144822264,0.014376439592324168,1.4259429859561663e-08,1.5742744361341217,0.15276133408156473,0.8194632081078714
0.1598762012569672,0.014361089638384497,1.2710902216862441e-08,1.4313789074488978,0.14383317361422499,0.8187979451166061
0.16150759106571175,0.014350930176586731,1.1342600076849547e-08,1.304137395398372,0.1354268550242446,0.8184807937078385
0.1631389808744563,0.014341574017578069,8.102408988495009e-08,1.127418114139668,0.12751187719113577,0.8184227350748942
0.16350759106571175,0.014342272953820295,7.979880715160529e-08,1.141365928440711,0.12578856591763746,0.818422735074893
0.1638762012569672,0.014341588355127815,7.859698679417494e-08,1.1238942634686524,0.12408854686215569,0.8184367010094129
0.16424481144822264,0.014341096380205035,7.741561585624993e-08,1.1085632606709659,0.12241150520793743,0.8184572923649803
0.1646134216394781,0.014340825008616172,7.625491320349423e-08,1.0956053406500652,0.12075713039324489,0.8184855304845625
0.16498203183073354,0.014340814224847388,7.511547709916263e-08,1.0853635679148084,0.11912511605388831,0.8185228987823201
0.16535064202198899,0.014341122066387567,7.399853592564007e-08,1.0783323285569826,0.11751515996649724,0.8185716354927622
0.16571925221324443,0.014341834696554964,7.290646398158122e-08,1.0752082000238645,0.11592696399256172,0.8186352912664516
0.16608786240449988,0.014343079920240701,7.184391528839902e-08,1.0768539312594034,0.1143602340232371,0.8187198832932332
0.16645647259575533,0.014345029131208244,7.082027025504504e-08,1.0836695715243012,0.11281467992490976,0.8188364501659053
0.16682508278701078,0.01434784289338193,6.985304472764442e-08,1.093065170963295,0.11129001548553195,0.8190065084473012
0.16719369297826622,0.014351702593500094,6.896536392983434e-08,1.0982695899810324,0.10978595836172783,0.8192684984757533
0.16756230316952167,0.014357073056673398,6.81737000475862e-08,1.096401201524056,0.10830223002658074,0.8196668886329287
0.16793091336077712,0.014364431483539915,6.748115452326925e-08,1.0899229263373202,0.10683855571795983,0.8202273465581231
0.16829952355203256,0.014374005206780187,6.688267703279943e-08,1.0813380344870342,0.10539466438745464,0.8209572257162259
0.168668133743288,0.014385856955751505,6.637085358012794e-08,1.0720419360113802,0.10397028865007046,0.8218559487503021
0.16903674393454346,0.014399976437544683,6.593825665693184e-08,1.0627410368722865,0.10256516473468157,0.8229201357320276
0.1694053541257989,0.014416322651915774,6.557814322768243e-08,1.053789982910304,0.10117903243518608,0.824145456296372
0.16977396431705435,0.014434841834768408,6.5284602749015e-08,1.0453636508268058,0.09981163506233082,0.8255273112109849
0.1701425745083098,0.014455475384768667,6.505253174782199e-08,1.0375417458818141,0.09846271939618828,0.8270611021829792
0.17051118469956525,0.01447816356287779,6.487755787464835e-08,1.030351870308967,0.09713203563927673,0.8287423443773597
0.1708797948908207,0.014502847290768745,6.475595498472704e-08,1.0237924745142424,0.0958193373703123,0.830566713335233
0.17124840508207614,0.01452946903815882,6.46845633238604e-08,1.0178456168251042,0.09452438149858487,0.8325300624684286
0.1716170152733316,0.014557973249213709,6.46607190618596e-08,1.0124843110529926,0.09324692821895,0.8346284266428948
0.17198562546458704,0.014588306525628364,6.468219379213253e-08,1.0076768733295702,0.09198674096742779,0.8368580189881865
0.17235423565584249,0.014620417677352511,6.474714331849332e-08,1.0033895417358258,0.09074358637740167,0.8392152244115876
0.17272284584709793,0.01465425770017776,6.485406465935571e-08,0.9995880697949386,0.08951723423640763,0.8416965915906537
0.17309145603835338,0.014689779713002206,6.50017601639358e-08,0.9962386942302268,0.08830745744350772,0.8442988243790606
0.17346006622960883,0.014726938873518317,6.51893077317776e-08,0.9933087131430028,0.08711403196723863,0.8470187731283223
0.17382867642086428,0.014765692283282415,6.541603626370586e-08,0.9907668178273554,0.08593673680412856,0.8498534261964623
0.17419728661211972,0.014805998888670603,6.568150561167122e-08,0.9885832671773168,0.08477535393777438,0.8527999017868761
0.17456589680337517,0.014847819381607258,6.598549042270235e-08,0.9867299610683213,0.08362966829847167,0.8558554401883206
0.17493450699463062,0.01489111610237587,6.632796738417563e-08,0.9851804490546064,0.08249946772338987,0.8590173964454126
0.17530311718588606,0.014935852945855043,6.670910547395956e-08,0.9839098981253623,0.08138454291728603,0.8622832334649888
0.1756717273771415,0.01498199527192086,6.712925890142023e-08,0.9828950351899981,0.08028468741374903,0.8656505155498593
0.17604033756839696,0.015029509820378536,6.758896249602196e-08,0.982114074704866,0.07919969753696768,0.8691169023437095
0.1764089477596524,0.015078364630548093,6.808892936158087e-08,0.9815466383803663,0.0781293723640155,0.8726801431668072
0.17677755795090785,0.015128528965479088,6.863005066820315e-08,0.9811736715849969,0.07707351368764515,0.8763380717202766
0.1771461681421633,0.015179973240676506,6.921339750243517e-08,0.9809773594956533,0.07603192597958588,0.8800886011361441
0.17751477833341875,0.0152326689571643,6.984022474082931e-08,0.9809410449772605,0.0750044163543369,0.8839297193506386
0.1778833885246742,0.015286588638681696,7.051197695449491e-08,0.9810491494464788,0.07399079453345021,0.887859484778983
0.17825199871592964,0.015341705772791401,7.123029639364454e-08,0.9812870974749627,0.07299087281029643,0.8918760222709152
0.1786206089071851,0.01539799475567396,7.199703314300611e-08,0.9816412455459245,0.07200446601530672,0.8959775193273507
0.17898921909844054,0.015455430840383933,7.281425758257377e-08,0.9820988151448189,0.07103139148168472,0.9001622225598136
0.17935782928969599,0.01551399008834943,7.36842753349155e-08,0.9826478302076345,0.07007146901158233,0.9044284343754737
0.17972643948095143,0.015573649323905047,7.460964493164051e-08,0.9832770588458334,0.06912452084273231,0.9087745098718165
0.18009504967220688,0.01563438609165836,7.559319848935565e-08,0.9839759591994214,0.06819037161553275,0.9131988539261112
0.18046365986346233,0.01569617861650123,7.663806575146562e-08,0.9847346292279362,0.06726884834057616,0.9176999184659366
0.18083227005471778,0.015759005766087887,7.774770192882464e-08,0.9855437602256247,0.06635978036661819,0.9222761999080114
0.18120088024597322,0.015822847015613557,7.892591986234315e-08,0.9863945938359197,0.06546299934897937,0.9269262367535559
0.18156949043722867,0.015887682414737637,8.017692713764173e-08,0.9872788823379304,0.06457833921837441,0.9316486073292692
0.18193810062848412,0.015953492556506473,8.150536891001293e-08,0.988188851981006,0.06370563615016353,0.9364419276638473
0.18230671081973956,0.016020258548140417,8.291637735267309e-08,0.9891171691506159,0.06284472853401965,0.9413048494907131
0.182675321010995,0.016087961983559385,8.441562882935645e-08,0.9900569091585136,0.06199545694400649,0.9462360583683347
0.18304393120225046,0.01615658491753014,8.600941012237661e-08,0.9910015274610857,0.06115766410906163,0.9512342719101592
0.1834125413935059,0.016226109841326775,8.77046953304707e-08,0.9919448331216815,0.06033119488387965,0.956298238116788
0.18378115158476135,0.016296519659803582,8.950923540139738e-08,0.992880964344696,0.05951589622018962,0.9614267338035656
0.1841497617760168,0.01636779766978702,9.1431662701066e-08,0.9938043659210519,0.05871161713842225,0.9666185631172718
0.18451837196727225,0.016439927539699847,9.348161356838853e-08,0.9947097684362999,0.05791820869976118,0.9718725561360673
0.1848869821585277,0.016512893290337168,9.566987249537066e-08,0.9955921691037427,0.05713552397857384,0.977187567547283
0.18525559234978314,0.016586679276719717,9.800854244810462e-08,0.9964468140953059,0.05636341803521685,0.9825624753980401
0.1856242025410386,0.016661270170955023,1.0051124696380901e-07,0.9972691822529822,0.05560174788921118,0.9879961799140475
0.18599281273229404,0.01673665094604248,1.0319337109955408e-07,0.9980549700727546,0.05485037249278267,0.9934876023822818
0.18636142292354949,0.016812806860311624,1.0607235012816172e-07,0.9988000731629219,0.05410915270476364,0.9990356840935505
0.18673003311480493,0.016889723439368825,1.0916801678016927e-07,0.9995005177557154,0.053377951264850725,1.0046393852977304
0.18709864330606038,0.01696738646175484,1.1250302240766238e-07,1.0001525006475978,0.05265663276821557,1.0102976840072384
0.18746725349731583,0.01704578195285851,1.1610335187666266e-07,1.0007524633792875,0.0519450636404645,1.0160095752695255
0.18783586368857128,0.017124896170261805,1.1999895513822343e-07,1.0012970072724283,0.05124311211294347,1.0217740704341893
