Time [s],Lmtc [m],STIM [ ],Fsee [N],Gamma [ ],Lcerel [ ]
0.0,0.020205647371608293,0.9999998115862679,0.4810892570116061,0.04935596282803424,1.2487180778352118
0.0027142857142857142,0.020285513349500444,0.9999998118103343,2.078821305328222,0.09500858717473434,1.2487180750837337
0.0054285714285714284,0.02032433685273287,0.9999997765895896,3.674524617828128,0.13846884252622116,1.247851449767628
0.008142857142857143,0.020305326611269915,0.9999996945241817,4.8621753783849115,0.1798420109817435,1.2442240117503727
0.010857142857142857,0.02025725882030921,0.9999995813696649,5.627629520985684,0.2192283181469309,1.2394192445426926
0.013571428571428571,0.020194889118758236,0.9999994458451781,6.123186150331519,0.2567231772650812,1.234077620557239
0.016285714285714285,0.020125313639456514,0.9999992950524702,6.466486395915018,0.2924174199825968,1.228473931264894
0.019,0.02005196578575511,0.9999991349518281,6.723778915521752,0.3263975162926413,1.222737853046974
0.021714285714285714,0.01997658774395224,0.9999989703992104,6.930276157234736,0.35874578393933104,1.216936109751765
0.024428571428571428,0.019900114844843907,0.9999988052141578,7.1049826448220825,0.3895405877675249,1.2111054560176318
0.027142857142857142,0.019823075813632834,0.9999986423006028,7.258545627315496,0.4188565295025298,1.20526718052674
0.029857142857142856,0.01974578242684586,0.999998483790765,7.397188839644641,0.44676462842184655,1.199434040832275
0.03257142857142857,0.019668424457585428,0.9999983311881467,7.524705191627848,0.47333249335745464,1.1936138264663014
0.03528571428571428,0.01959111983221042,0.9999981854966902,7.6434983198730615,0.49862448644492385,1.1878113038822713
0.03799999999999999,0.019513942461461525,0.9999980473310386,7.755147439390754,0.5227018790150296,1.1820293334516294
0.0407142857142857,0.0194369383733577,0.9999979170073553,7.860725187243608,0.5456230000043049,1.1762695389906581
0.043428571428571414,0.019360135430887042,0.9999977946163467,7.960982824558565,0.5674433772428555,1.1705327238299121
0.046142857142857124,0.01928354938499005,0.9999976800809898,8.056461685033533,0.58821587196064,1.1648191374015278
0.048857142857142835,0.019207187756467705,0.9999975732015925,8.147562248050486,0.607990806837145,1.1591286505303455
0.051571428571428546,0.01913105238938062,0.9999974736906155,8.234588115964197,0.6268160879039179,1.1534608732453662
0.05428571428571426,0.019055141167789946,0.9999973811993405,8.317774709788269,0.6447373205946612,1.1478152354290785
0.05699999999999997,0.01897944919193267,0.9999972953381209,8.397308419307404,0.6617979202235538,1.1421910428752005
0.05971428571428568,0.01890396959708207,0.9999972156916113,8.473339649737111,0.6780392171590622,1.1365875167373496
0.06242857142857139,0.018828694131370262,0.9999971418300869,8.545991881266511,0.6935005569477357,1.1310038215564433
0.0651428571428571,0.018753613568031947,0.9999970733177315,8.615368072077723,0.7082193956303129,1.1254390853088436
0.06785714285714281,0.018678718002045215,0.9999970097185694,8.681555258818944,0.7222313904808818,1.1198924138016464
0.07057142857142852,0.018603997064882076,0.9999969506005761,8.744627913131021,0.7355704863887655,1.1143629010138134
0.07328571428571423,0.01852944008049249,0.9999968955383705,8.804650426099162,0.7482689980923064,1.1088496364982614
0.07599999999999994,0.018455036178623783,0.9999968441148003,8.861678972264695,0.7603576884636738,1.1033517106331912
0.07871428571428565,0.018380771885748937,0.9999967959216617,8.915623560167536,0.7718658430342943,1.0978682182865949
0.08142857142857136,0.01830663291856417,0.9999967505597257,8.966344456581945,0.7828213409413887,1.092398261301722
0.08414285714285707,0.01823260829807109,0.999996707638207,9.013881814764016,0.7932507224674568,1.0869409501011622
0.08685714285714279,0.01815868706752461,0.9999966667737673,9.058272272663453,0.8031792533363,1.0814954046286402
0.0895714285714285,0.018084858295543054,0.9999966275891181,9.099548590578868,0.8126309859213151,1.076060754790929
0.09228571428571421,0.01801111108768177,0.9999965897112597,9.137740078940984,0.8216288175143279,1.0706361405209983
0.09499999999999992,0.01793743459217311,0.9999965527693748,9.172872944585817,0.8301945457961026,1.065220711553146
0.09771428571428563,0.017863818001150687,0.9999965163923697,9.204970573165834,0.8383489216429036,1.0598136269783285
0.10042857142857134,0.0177902505483524,0.9999964802060428,9.234053760990987,0.8461116993970114,1.0544140546310636
0.10314285714285705,0.01771672150405416,0.9999964438298332,9.260140906397915,0.8535016847229749,1.0490211703465766
0.10585714285714276,0.017643220167803685,0.9999964068730869,9.283248168381387,0.8605367801655118,1.0436341571172343
0.10857142857142847,0.01756973585938415,0.9999963689307471,9.303389598456167,0.8672340285194089,1.0382522041699227
0.11128571428571418,0.017496257908331127,0.9999963295783478,9.320577250386458,0.8736096541164708,1.032874505980361
0.1139999999999999,0.017422775642243104,0.9999962883661521,9.334821271407911,0.8796791021295088,1.0275002612359165
0.1167142857142856,0.01734927837406171,0.9999962448122247,9.346129977791025,0.885457075988563,1.0221286717550477
0.11942857142857131,0.01727575538844639,0.9999961983941715,9.354509916994202,0.890957572999955,1.016758941368746
0.12214285714285703,0.017202195927327964,0.9999961485391883,9.359965918185875,0.8961939182544154,1.0113902747671841
0.12485714285714274,0.017128589174692257,0.999996094611954,9.362501132545914,0.9011787969063708,1.0060218763129818
0.12757142857142845,0.017054924766349584,0.9999960359005602,9.362147204285424,0.9059242849025061,1.0006529488210254
0.13028571428571417,0.016981191632742455,0.9999959716061372,9.358870641270373,0.9104418782339733,0.9952827282328282
0.1329999999999999,0.016907377555907138,0.9999959008244765,9.352426581567407,0.9147425207833352,0.989910637418975
0.13571428571428562,0.016833475388268265,0.9999958225106043,9.342808608129058,0.9188366308333306,0.9845361677282428
0.13842857142857135,0.01675947793741804,0.999995735441303,9.330012922863583,0.9227341263009163,0.9791588059896777
0.14114285714285707,0.016685377894291274,0.9999956381687953,9.314034555888517,0.9264444487576946,0.9737780341250221
0.1438571428571428,0.016611167825513525,0.9999955289599821,9.294867365211923,0.929976586294594,0.9683933286288635
0.14657142857142852,0.0165368401651533,0.9999954057156276,9.272504032924758,0.9333390952855954,0.963004160019455
0.14928571428571424,0.016462387205868154,0.9999952658612395,9.246936058058328,0.9365401211024292,0.9576099922596427
0.15199999999999997,0.016387801089427174,0.9999951061972843,9.21815374621334,0.9395874178292508,0.9522102821469577
0.1547142857142857,0.01631307379658566,0.9999949226898047,9.186146196026293,0.9424883670233665,0.9468044786715849
0.15742857142857142,0.016238197136280566,0.9999947101717215,9.150901282501987,0.945249995564963,0.9413920223405573
0.16014285714285714,0.01616316273410877,0.9999944619068725,9.112405637207946,0.947878992635299,0.9359723444662086
0.16285714285714287,0.016087962020042982,0.9999941689370017,9.070644625295577,0.9503817258586162,0.9305448664165508
0.1655714285714286,0.0160125862153332,0.9999938190741022,9.025602319283298,0.9527642566375135,0.9251089988249243
0.16828571428571432,0.015937026318533536,0.9999933952909283,8.97726146950785,0.9550323547034815,0.9196641407558787
0.17100000000000004,0.015861273090586422,0.9999928730438207,8.925603471120226,0.9571915118913876,0.9142096788238844
0.17371428571428577,0.015785317038887116,0.9999922155986587,8.870608327470682,0.9592469551239089,0.9087449862610587
0.1764285714285715,0.0157091484002417,0.9999913653753808,8.812254609690791,0.9612036585479522,0.9032694219296614
0.17914285714285721,0.015632757122621153,0.9999902266994695,8.750519412233798,0.963066354672597,0.8977823292746618
0.18185714285714294,0.015556132845601946,0.9999886280338512,8.68537830406732,0.9648395441438461,0.8922830352111853
0.18457142857142866,0.015479264879370142,0.9999862281680248,8.616805275097937,0.9665275032362489,0.8867708489411714
0.1872857142857144,0.015402142182151506,0.9999822374659088,8.544772677195756,0.9681342864797398,0.8812450606932021
0.1900000000000001,0.015324753335922063,0.9999743206486545,8.469251158991364,0.9696637157739895,0.875704940379619
0.19271428571428584,0.015247086520397971,0.9999511905367309,8.390209599762816,0.9711193173345434,0.8701497361678867
0.19542857142857156,0.015169206333995535,0.3434440377794353,8.31176569673194,0.9725039060009611,0.8645786729887092
0.1981428571428573,0.015090749052000578,1.701397243971706e-05,8.211044372565222,0.9125251760392428,0.8589962687489128
0.200857142857143,0.015011801777515332,6.545530233895364e-06,8.0858158697679,0.8255206557040407,0.8534124905135941
0.20357142857142874,0.01493260833995718,3.3102918569251637e-06,7.942967629562611,0.7468108104479853,0.847836404045647
0.20628571428571446,0.014853188115384632,1.8712107712635746e-06,7.777757628891252,0.6756054524753075,0.8422767309001736
0.20900000000000019,0.014773581363643424,1.1244907770191356e-06,7.5843139636596835,0.6111892181050428,0.8367457555847571
0.2117142857142859,0.014693865184843922,7.035199185468253e-07,7.355762538331516,0.5529148466313355,0.8312605875221635
0.21442857142857163,0.014614180838150541,4.538545101142848e-07,7.084746621071957,0.5001967571554736,0.8258448056732884
0.21714285714285736,0.014534778155216747,3.006762168567753e-07,6.764556275955703,0.4525051877931312,0.8205305530705034
0.21985714285714308,0.014456082359274602,2.0434891222143482e-07,6.391000790599213,0.4093608810566784,0.8153611173199713
0.2225714285714288,0.014378783854431932,1.4257894225797815e-07,5.96484184620847,0.3703302717360873,0.8103939535220906
0.22528571428571453,0.014303940083875498,1.0230086955282284e-07,5.494041558826131,0.33502113190294286,0.8057039438919602
0.22800000000000026,0.014233062258123095,7.563530262850551e-08,4.994565279550076,0.3030786303792511,0.8013864131088353
0.23071428571428598,0.01416814934984362,5.773463572061666e-08,4.488656565028338,0.2741817675410781,0.7975590810835115
0.2334285714285717,0.014111639282889537,4.557827784412139e-08,4.000587852555016,0.24804014984974526,0.7943620517544392
0.23614285714285743,0.014066244268988202,3.7278695966231015e-08,3.5502810226752572,0.22439107180890056,0.7919551994891224
0.23885714285714316,0.014034530299113787,3.16483988950232e-08,3.144143698266382,0.20299687608384653,0.7905075669827449
0.24157142857142888,0.014010998948581122,2.7493907333131687e-08,2.5570193865461937,0.1836425652858988,0.7901469969258247
0.2442857142857146,0.013990354791334546,2.3918939911626625e-08,1.9759081397632017,0.16613364140008455,0.7901469844581007
0.24700000000000033,0.013971523677918141,2.0684841721685328e-08,1.5110700324646817,0.15029415124715706,0.7901469789312126
0.24971428571428606,0.013954673788198256,1.775910870966907e-08,1.1479026339946723,0.13596491834050506,0.7901469750990966
0.2524285714285718,0.013939835536934647,1.5112338368476844e-08,0.8693584593477999,0.12300194328823479,0.7901469720043949
0.2551428571428575,0.013926943821349725,1.2717932033508953e-08,0.6587291440000148,0.11127495669373463,0.790146969306268
0.25785714285714323,0.013915874931179857,1.0551827278308926e-08,0.5011582994031006,0.10066611003368495,0.7901469668458178
0.26057142857142895,0.013906474421033647,8.592256018960244e-09,0.3842254215146674,0.09106879135769774,0.79014696453715
0.2632857142857147,0.013898575863797353,6.819525727497346e-09,0.2979671984598737,0.08238655390814449,0.7901469623293774
0.2660000000000004,0.013892012091464064,5.215821520197589e-09,0.2346170557176657,0.07453214689350289,0.7901469601904711
0.2687142857142861,0.013886621045755831,3.765027121796685e-09,0.18824177378253348,0.06742663867513174,0.7901469580994224
0.27142857142857185,0.01388224835478223,2.382031771757619e-07,0.1543736544023975,0.0609986235560752,0.7901469560420493
0.271571428571429,0.013968930059251632,2.3785332386639362e-07,1.45193131511276,0.060677822277634304,0.7901469560420483
0.2717142857142862,0.014029390396318656,2.3848690883571375e-07,1.4554110904070627,0.06035870842455179,0.794542664756704
0.27185714285714335,0.014089905270362588,2.391610989477119e-07,1.4588709364173462,0.06004127312607752,0.7989424262590497
0.2720000000000005,0.014150475288209511,2.3987686808762643e-07,1.462310578752738,0.059725507553162645,0.8033462853872883
0.2721428571428577,0.014211101050123898,2.406352424329622e-07,1.4657297377698473,0.05941140292320443,0.807754286517312
0.27228571428571485,0.014271783149759416,2.4143730321212694e-07,1.4691281284623559,0.0590989504998025,0.8121664735594283
0.272428571428572,0.014332522174108204,2.4228418965962773e-07,1.472505460348827,0.0587881415925159,0.8165828899549821
0.2725714285714292,0.014393318703448591,2.431771021835406e-07,1.4758614373587184,0.0584789675566217,0.8210035786728687
0.27271428571428635,0.014454173311291181,2.441173057624543e-07,1.4791957577165873,0.05817141979287493,0.8254285822059352
0.2728571428571435,0.01451508656432337,2.451061335907235e-07,1.4825081138244418,0.057865489747269655,0.8298579425672733
0.2730000000000007,0.014576059022352072,2.461449909926909e-07,1.4857981921422163,0.05756116891080128,0.8342917012863884
0.27314285714285785,0.014637091238244807,2.472353596285503e-07,1.489065673066388,0.057258448819230284,0.8387298994052551
0.273285714285715,0.014698183757868959,2.4837880201676495e-07,1.492310230806631,0.05695732105284724,0.843172577474247
0.2734285714285722,0.014759337120029248,2.4957696640044054e-07,1.495531533260575,0.056657777236238945,0.8476197755479431
0.27357142857142935,0.014820551856403342,2.508315919878309e-07,1.498729241886566,0.05635980903805578,0.8520715331808044
0.2737142857142865,0.014881828491475594,2.521445146002377e-07,1.501903011574464,0.05606340817078055,0.856527889422723
0.2738571428571437,0.014943167542468803,2.53517672764017e-07,1.5050524905144032,0.05576856639049841,0.8609888828144321
0.27400000000000085,0.015004569519273992,2.5495311428726493e-07,1.508177320063539,0.055475275496667996,0.8654545513827823
0.274142857142858,0.015066034924378207,2.564530033660617e-07,1.5112771346107206,0.05518352733189382,0.8699249326358766
0.2742857142857152,0.015127564252790163,2.580196282700005e-07,1.5143515614390766,0.05489331378170008,0.8744000635580611
0.27442857142857235,0.015189157991963841,2.596554096621537e-07,1.5174002205865158,0.05460462677430547,0.878879980604771
0.2745714285714295,0.015250816621719884,2.6136290961473694e-07,1.5204227247040756,0.054317458280399224,0.8833647196972256
0.2747142857142867,0.015312540614164753,2.6314484138860876e-07,1.5234186789121278,0.05403180031291861,0.8878543162169678
0.27485714285714385,0.01537433043360769,2.6500408005250035e-07,1.5263876806544276,0.053747644926827445,0.8923488050002527
0.275000000000001,0.015436186536475329,2.6694367402663275e-07,1.529329319549945,0.053464984218895756,0.8968482203322735
0.2751428571428582,0.015498109371223928,2.689668576452978e-07,1.5322431772425014,0.053183810327480985,0.9013525959412221
0.27528571428571535,0.015560099378249242,2.7107706484421694e-07,1.5351288272481787,0.05290411543231013,0.9058619649921872
0.2754285714285725,0.015622156989793912,2.732779440912635e-07,1.5379858348004616,0.05262589175426323,0.9103763600808803
0.2755714285714297,0.015684282629852365,2.755733746936587e-07,1.5408137566931372,0.05234913155515789,0.9148958132271905
0.27571428571428686,0.01574647671407314,2.779674846313038e-07,1.5436121411208967,0.05207382713753531,0.9194203558685592
0.275857142857144,0.015808739649658583,2.8046467008482856e-07,1.546380527517643,0.05179997084444734,0.9239500188531755
0.2760000000000012,0.015871071835261957,2.830696168485665e-07,1.5491184463925116,0.05152755505924482,0.9284848324329913
0.27614285714285836,0.015933473660881735,2.8578732384348525e-07,1.5518254191635263,0.05125657220536705,0.933024826256541
0.2762857142857155,0.015995945507753215,2.886231289736126e-07,1.5545009579889735,0.05098701474613266,0.9375700293615783
0.2764285714285727,0.01605848774823728,2.9158273760233677e-07,1.5571445655963965,0.050718875184531644,0.9421204701675128
0.27657142857142986,0.016121100745706246,2.9467225396286396e-07,1.5597557351092735,0.05045214606301848,0.9466761764676471
0.276714285714287,0.01618378485442684,2.978982158609642e-07,1.5623339498713165,0.05018681996330679,0.9512371754212156
0.2768571428571442,0.016246540419440146,3.012676330789988e-07,1.5648786832684383,0.04992288950616504,0.9558034935452112
0.27700000000000136,0.016309367776438523,3.0478802994933797e-07,1.5673893985483454,0.04966034735121361,0.960375156706007
0.2771428571428585,0.016372267251639427,3.084674926342079e-07,1.5698655486377906,0.04939918619672317,0.9649521901107591
0.2772857142857157,0.01643523916165606,3.123147217295366e-07,1.572306575957458,0.049139398779414235,0.9695346182985932
0.27742857142857286,0.0164982838133648,3.1633909090477044e-07,1.574711912234518,0.04888097787425831,0.9741224651315684
0.27757142857143,0.016561401503769387,3.2055071240156073e-07,1.5770809783128341,0.048623916294280076,0.9787157537854141
0.2777142857142872,0.01662459251986171,3.249605103449992e-07,1.5794131839608578,0.048368206890361164,0.9833145067400361
0.27785714285714436,0.016687857138479284,3.2958030297568296e-07,1.5817079276771866,0.048113842551045324,0.9879187457697901
0.2780000000000015,0.01675119562615915,3.3442289509430644e-07,1.5839645964938693,0.047860816202345065,0.9925284919335108
0.2781428571428587,0.016814608238984275,3.3950218222772493e-07,1.5861825656800783,0.0476091208075496,0.9971437655643047
0.27828571428571586,0.016878095222161667,3.4483326817738436e-07,1.5883611923091343,0.04735874936703467,1.0017645862587388
0.278428571428573,0.016941656809178654,3.5043259790519896e-07,1.5904998042004412,0.047109694918073736,1.0063909728494767
0.2785714285714302,0.017005293223059454,3.5631810896067726e-07,1.5925977351506266,0.04686195053465096,1.0110229433881885
0.27871428571428736,0.017069004675916197,3.6250940384603036e-07,1.5946543113901392,0.04661550932727598,1.0156605151548463
0.2788571428571445,0.01713279136859639,3.6902794662146276e-07,1.5966688464592882,0.04637036444280054,1.0203037046479662
0.2790000000000017,0.017196653490510905,3.758972880429488e-07,1.5986406409965526,0.04612650906423708,1.0249525275728448
0.27914285714285886,0.017260591219458,3.8314332418837194e-07,1.6005689825249347,0.04588393641057958,1.029606998829522
0.279285714285716,0.017324604721443267,3.907945945296281e-07,1.6024531452363642,0.045642639736626585,1.0342671325004615
0.2794285714285732,0.017388694150495574,3.9888262665110637e-07,1.6042923897742605,0.04540261233280673,1.0389329418379531
0.27957142857143036,0.01745285964847876,4.0744233635725844e-07,1.6060859630143038,0.04516384752500714,1.0436044392512245
0.2797142857142875,0.01751710134489917,4.165124938361248e-07,1.6078330978434918,0.04492633867440467,1.048281636293263
0.2798571428571447,0.017581419356708806,4.2613626895973597e-07,1.609533012937553,0.04469007917730055,1.0529645436473363
0.28000000000000186,0.017645813788104224,4.3636187184886485e-07,1.6111849125368323,0.04445506246495881,1.0576531711132173
0.280142857142859,0.01771028473032095,4.472433086983235e-07,1.6127879862207235,0.04422128200344895,1.0623475275930996
0.2802857142857162,0.017774832261423325,4.5884127780404277e-07,1.614341408680751,0.04398873129349312,1.0670476210772004
0.28042857142857336,0.017839456446089932,4.71224237097839e-07,1.6158443394924231,0.04375740387031936,1.0717534586290518
0.2805714285714305,0.01790415733539423,4.844696827478563e-07,1.6172959228859896,0.04352729330352059,1.0764650463704677
0.2807142857142877,0.017968934966580585,4.986656891652103e-07,1.618695287516194,0.04329839319692167,1.0811823894661883
0.28085714285714486,0.01803378936283549,5.139127749629548e-07,1.6200415462312079,0.04307069718845481,1.0859054921081928
0.281000000000002,0.01809872053305392,5.303261782937411e-07,1.6213337958408658,0.042844198950045695,1.090634357499678
0.2811428571428592,0.018163728471600776,5.480386503214658e-07,1.622571116884389,0.042618892187512046,1.095368987838695
