Time [s],Lmtc [m],STIM [ ],Fsee [N],Gamma [ ],Lcerel [ ]
0.0,0.023094838770707855,0.9999985226067163,1.3044383984355794,0.0984714566040655,1.4558207441011446
0.008631127570498354,0.022923550928978166,0.9999956432440166,2.5628217058280036,0.2290711053308042,1.4397662324278193
0.017262255140996708,0.02272006204587165,0.9999919605365994,3.2943639960460347,0.3407510289261682,1.4232677411535233
0.025893382711495064,0.022530279592682178,0.9999884566841136,3.893838581054794,0.43625191553343257,1.40820334511854
0.034524510281993416,0.0223533551126358,0.9999854845662324,4.425762758918961,0.5179175660047165,1.3942922612888384
0.04315563785249177,0.022186573248383863,0.999983123232147,4.910297225112857,0.5877522977822582,1.3812628463123362
0.05178676542299012,0.022027837714308503,0.9999813382056874,5.357624838059047,0.6474700844683092,1.3689244494711712
0.06041789299348847,0.02187563133535568,0.9999800547930484,5.774125583520728,0.6985366000173897,1.3571432565854078
0.06904902056398683,0.021728839116544153,0.9999791901400827,6.164245531898088,0.7422051828194983,1.3458223506792124
0.07768014813448519,0.021586619568829193,0.9999786663871794,6.531279765991938,0.7795475944931135,1.3348892232877467
0.08631127570498355,0.0214483209250025,0.9999784153245739,6.877771506866999,0.8114803247136931,1.3242880533046144
0.09494240327548191,0.021313426607773592,0.9999783793121786,7.205742041646025,0.838787086069603,1.3139748050466495
0.10357353084598027,0.02118151893475098,0.9999785106431142,7.516834336339803,0.8621380503357365,1.3039140117739911
0.11220465841647863,0.021052254306825568,0.999978770345177,7.812408008967195,0.8821062979936409,1.294076596940719
0.12083578598697699,0.020925345798903924,0.9999791268661951,8.093604878189621,0.8991818846195564,1.2844383552769094
0.12946691355747533,0.02080055064843337,0.9999795548334377,8.361395742719987,0.9137838693557973,1.2749788664698594
0.1380980411279737,0.020677661067702045,0.9999800339579087,8.61661468372075,0.9262706006988396,1.2656807004985628
0.14672916869847205,0.020556497365352953,0.999980548099571,8.859984792421352,0.936948512078785,1.2565288245922044
0.1553602962689704,0.020436902706942872,0.9999810844855925,9.092137840089915,0.9460796431324701,1.247510152737138
0.16399142383946877,0.020318739061624368,0.9999816330644491,9.313629567581605,0.9538880712946808,1.2386131980098358
0.17262255140996713,0.020201884022343023,0.9999821859763697,9.524951743020733,0.960565411583836,1.2298278004301415
0.1812536789804655,0.020086228279595487,0.9999827371213529,9.726541792817484,0.966275519584931,1.2211449111862533
0.18988480655096385,0.019971673591242467,0.9999832818079686,9.918790582154289,0.9711585130726401,1.2125564195581249
0.1985159341214622,0.019858131133763862,0.9999838164684995,10.10204876465291,0.9753342109914237,1.2040550126139107
0.20714706169196057,0.019745520150320738,0.9999843384282611,10.27663201190212,0.978905074206784,1.1956340603659814
0.21577818926245892,0.019633766832276953,0.999984845718995,10.44282535613063,0.9819587202113985,1.187287520923272
0.22440931683295728,0.0195228033861746,0.9999853369280145,10.6008868234673,0.9845700735115127,1.1790098615072202
0.23304044440345564,0.019412567249364195,0.9999858110762615,10.751050494339166,0.9868032044759203,1.1707959921686177
0.241671571973954,0.019303000425779912,0.9999862675194251,10.893529097211728,0.9887129017826397,1.1626412097590033
0.25030269954445233,0.019194048919553106,0.999986705864128,11.02851621907777,0.9903460170605324,1.1545411502453857
0.25893382711495067,0.01908566224884903,0.9999871258698126,11.156188198778812,0.9917426147501034,1.1464917478613104
0.267564954685449,0.01897779302589512,0.9999875272166655,11.276705755944835,0.9929369555711283,1.1384891998956228
0.27619608225594733,0.01887039659193145,0.9999879088213279,11.390215398052598,0.9939583385804031,1.130529936157671
0.28482720982644566,0.01876343069795967,0.999988267264015,11.496850640185636,0.9948318252409882,1.1226105923417746
0.293458337396944,0.018656855223843014,0.9999885943679074,11.596733066121,0.9955788687648282,1.114727986657231
0.3020894649674423,0.018550631929625076,0.9999888751978371,11.689973254797392,0.9962178693959173,1.1068790992024906
0.31072059253794065,0.01844472296539572,0.9999890886731845,11.776590024558946,0.9967646656363846,1.099061053651575
0.319351720108439,0.01833908559301499,0.9999892123457393,11.856182047725438,0.9972329535267356,1.0912711008948592
0.3279828476789373,0.01823368486026261,0.9999892311444594,11.928754212129801,0.9976346132082294,1.0835066043401331
0.33661397524943565,0.018128488206070072,0.9999891485126371,11.994385907283721,0.997979927955404,1.0757650266343999
0.345245102819934,0.018023464007255744,0.999988996943364,12.053147825306525,0.9982777057005062,1.0680439176097494
0.3538762303904323,0.017918581443595896,0.9999888414285444,12.105102388514673,0.9985353415552634,1.0603409032857114
0.36250735796093064,0.017813810372923376,0.9999887658850216,12.15030411240535,0.9987588751761999,1.0526536757767342
0.371138485531429,0.0177091212146397,0.9999888396781665,12.18879991679624,0.9989530923442681,1.0449799839611094
0.3797696131019273,0.017604484840042033,0.9999890831025273,12.2206293968928,0.9991216987343083,1.0373176247721632
0.38840074067242564,0.0174998724678807,0.9999894611693596,12.245825062643643,0.999267562254215,1.0296644349792035
0.39703186824292397,0.017395255563634446,0.9999899096507139,12.264412549224744,0.9993929881847933,1.0220182833385554
0.4056629958134223,0.017290605741155183,0.9999903674763587,12.276410795508088,0.9994999725794778,1.014377063014876
0.41429412338392063,0.017185894664888318,0.9999907935980834,12.28183213842127,0.9995903855334584,1.0067386841958736
0.42292525095441896,0.017081094859038408,0.9999911676225576,12.280742000191477,0.9996660640749702,0.9991010667145953
0.4315563785249173,0.016976177960262403,0.999991483413356,12.272990466620968,0.999728826731934,0.9914623106108015
0.4401875060954156,0.016871121557430944,0.9999917424151051,12.25839925433341,0.9997804406690008,0.9838209874470671
0.44881863366591396,0.016765906874212044,0.9999919490942559,12.236959088214602,0.9998225731547128,0.9761757525164436
0.4574497612364123,0.016660514851864032,0.9999921085335752,12.2086563129381,0.9998567490482962,0.9685252518908115
0.4660808888069106,0.016554926104922617,0.999992225418768,12.173472845021703,0.9998843240657246,0.9608681193936025
0.47471201637740895,0.016449120875128904,0.9999923037914374,12.131386111133889,0.9999064749212424,0.9532029735106061
0.4833431439479073,0.01634307898320241,0.9999923471871403,12.082368972444753,0.9999242030507002,0.9455284142130962
0.4919742715184056,0.016236779778034945,0.9999923589562517,12.026389634149938,0.9999383473729491,0.9378430196669943
0.500605399088904,0.016130202082857863,0.9999923426636644,11.963411538944486,0.9999496019656283,0.9301453428013968
0.5092365266594023,0.016023324137907802,0.9999923024994181,11.893393243041759,0.9999585355569948,0.9224339077090203
0.5178676542299007,0.01591612353907971,0.9999922436277479,11.816288273213477,0.9999656107893021,0.9147072058497865
0.526498781800399,0.01580857717200729,0.9999921723780192,11.732044963206496,0.9999712020576308,0.906963692026718
0.5351299093708973,0.015700661140949587,0.9999920961649877,11.640606267737486,0.9999756113238815,0.899201780100597
0.5437610369413957,0.015592350691785778,0.9999920230522433,11.541909552063883,0.9999790816846537,0.8914198384063574
0.552392164511894,0.015483620128327913,0.9999919609666952,11.435886354873057,0.9999818086976173,0.8836161848299416
0.5610232920823923,0.01537444272105019,0.9999919167177835,11.32246212192161,0.9999839496075252,0.8757890814992499
0.5696544196528907,0.015264790607200616,0.9999918950990513,11.20155590749241,0.9999856307068842,0.8679367290367076
0.578285547223389,0.01515463468110262,0.9999918983584765,11.073080040312794,0.9999869531356141,0.8600572603137564
0.5869166747938873,0.015043944473264632,0.9999919261874767,10.936939750077478,0.99998799745953,0.8521487336389751
0.5955478023643856,0.01493268801668823,0.9999919761727862,10.793032750119867,0.9999888273525898,0.84420912530134
0.604178929934884,0.014820831698492697,0.9999920445039072,10.641248771051714,0.9999894926432984,0.8362363213780819
0.6128100575053823,0.0147083400946443,0.9999921267002998,10.481469039322372,0.9999900318966626,0.828228108702262
0.6214411850758806,0.014595175785180001,0.9999922181934446,10.313565693616285,0.9999904746231276,0.8201821648681326
0.630072312646379,0.014481299146830082,0.9999923146999218,10.137401130784767,0.9999908431556094,0.8120960471319814
0.6387034402168773,0.01436666811934852,0.9999924123984194,9.952827271553979,0.9999911542160328,0.8039671800415974
0.6473345677873756,0.014251237941126023,0.9999925079594462,9.75968473450999,0.9999914201926589,0.7957928415978883
0.655965695357874,0.014134960848747683,0.9999925984805275,9.557801904758461,0.9999916501563723,0.7875701477161612
0.6645968229283723,0.014017785734014498,0.9999926813676013,9.346993881098733,0.9999918506500199,0.7792960347106258
0.6732279504988706,0.013899657750506226,0.9999927541869434,9.127061282421602,0.9999920262867408,0.7709672394717317
0.681859078069369,0.013780517859928147,0.9999928144968329,8.897788890185835,0.9999921801910383,0.7625802769393613
0.6904902056398673,0.013660302306127605,0.999992859655378,8.658944099054258,0.9999923143113306,0.7541314143922064
0.6991213332103656,0.01353894200160884,0.9999928865889517,8.410275141817817,0.9999924296259726,0.7456166419703205
0.707752460780864,0.013416361807363632,0.999992891491434,8.151509047262296,0.9999925262568589,0.7370316387177541
0.7163835883513623,0.013292479681510002,0.9999928694028227,7.88234928017978,0.9999926034954726,0.7283717332673206
0.7250147159218606,0.01316720566506384,0.9999928135775693,7.602473000673185,0.9999926597343268,0.7196318580787983
0.733645843492359,0.013040440663379694,0.99999271447943,7.31152786440278,0.9999926922793069,0.7108064958703973
0.7422769710628573,0.01291207496820174,0.9999925580883223,7.009128265306327,0.9999926969890406,0.7018896165302209
0.7509080986333556,0.012781986446032867,0.9999923228715164,6.694850895956778,0.9999926676322379,0.6928746023308965
0.759539226203854,0.012650038290740883,0.9999919739760383,6.3682294657890886,0.9999925947398601,0.6837541586554634
0.7681703537743523,0.012516076197203777,0.9999914510983039,6.02874837060845,0.9999924634704471,0.6745202066172498
0.7768014813448506,0.012379924750274777,0.999990640166377,5.6758350432416025,0.9999922493576846,0.6651637528353789
0.7854326089153489,0.012241382725245322,0.999989296287909,5.3088506277272804,0.9999919089564231,0.6556747300845756
0.7940637364858473,0.012100216836327058,0.9999867801800454,4.927078497344579,0.9999913561253944,0.6460418003843938
0.8026948640563456,0.011956153198575712,0.9999807201926931,4.529709966638455,0.9999903873497784,0.6362521090449347
0.8113259916268439,0.011808865288882593,0.9999483922315237,4.115826461220138,0.9999883378965233,0.6262909738428999
0.8199571191973423,0.011658662109953906,1.5746059643058326e-05,3.709805116184974,0.999979800840308,0.6161414882402566
0.8285882467678406,0.01150172154836318,2.5827020275390235e-06,3.134531628098518,0.7271301662957687,0.6059129720992384
0.8372193743383389,0.011341462524425965,8.122747348912012e-07,2.418841568152351,0.5287272837015428,0.5959060871965721
0.8458505019088373,0.011182813586245574,3.6048225113085205e-07,1.6090180466360684,0.38446055934926526,0.586573593583427
0.8544816294793356,0.01104660341577397,2.0892018098883302e-07,0.9798133902292028,0.27955864336181907,0.5788130398237137
0.8631127570498339,0.010966267210480461,1.088954991069311e-06,0.5191515965470925,0.2032804505800616,0.5750529044936311
0.8644816294793356,0.010961616221099995,1.0348830180908179e-06,0.45826138600777266,0.1932634148345935,0.57505290449363
0.8658505019088373,0.010959420286989138,9.839656191385084e-07,0.4293076254011018,0.1837400120827203,0.5750619474855948
0.867219374338339,0.010958986626602855,9.365761483636293e-07,0.41368144279709657,0.17468591643635412,0.5751239762374928
0.8685882467678406,0.010961294400064216,8.94270523537365e-07,0.41483330088596093,0.1660780007961889,0.5752852270656321
0.8699571191973423,0.010967514584176843,8.608070070427585e-07,0.410563432918394,0.1578942778341273,0.5757644714056389
0.871325991626844,0.010983445914583063,8.374716663572789e-07,0.39808828430158055,0.15011384393432423,0.577002027054432
0.8726948640563457,0.011010560842545694,8.221234904253163e-07,0.3874529930270727,0.14271682566643787,0.5790444450383958
0.8740637364858473,0.011047988882944212,8.127669569000955e-07,0.3798991483507845,0.13568432884960147,0.5818200066694819
0.875432608915349,0.011094730513877417,8.081175713822224e-07,0.37499672461276323,0.12899839030255736,0.5852580335315336
0.8768014813448507,0.011149892374293978,8.073594965498847e-07,0.3721340869328372,0.12264193199939313,0.5892969861594692
0.8781703537743524,0.011212699243813325,8.099684142535341e-07,0.3707808633404191,0.11659871747252314,0.5938835983509135
0.879539226203854,0.011282476896792723,8.156052822311758e-07,0.3705226794099904,0.1108533103553844,0.5989713211227561
0.8809080986333557,0.011358633325103274,8.240528756056097e-07,0.3710476702316033,0.10539103496289712,0.6045189871830812
0.8822769710628574,0.011440643013503107,8.351771795963697e-07,0.37212511536754134,0.10019793881137741,0.6104897736135877
0.8836458434923591,0.011528034631964591,8.489034266650156e-07,0.37358596417179524,0.09526075698355194,0.6168504164235032
0.8850147159218608,0.011620381620251478,8.652009662048386e-07,0.3753071763372927,0.09056687824847051,0.623570619257768
0.8863835883513624,0.011717295034327075,8.840735916922285e-07,0.3771997012663668,0.08610431285026966,0.6306226073622966
0.8877524607808641,0.011818418105328604,9.05553321572837e-07,0.3791994376978413,0.08186166188381774,0.6379807888655693
0.8891213332103658,0.011923422074582789,9.296964196952462e-07,0.3812605022028737,0.07782808817920954,0.6456214948295247
0.8904902056398675,0.012032002970749384,9.565809062936818e-07,0.3833502437044935,0.07399328862086575,0.6535227768780921
0.8918590780693691,0.012143879078567853,9.863050905780956e-07,0.3854455636794528,0.07034746783061391,0.6616642467868125
0.8932279504988708,0.012258788913395244,1.0189868279770306e-06,0.38753020767363067,0.06688131314758466,0.6700269465849477
0.8945968229283725,0.012376489564824417,1.0547633126938277e-06,0.3895927776923081,0.06358597084105252,0.6785932408168089
0.8959656953578742,0.012496755309467724,1.0937912848245768e-06,0.39162527903635574,0.06045302349548825,0.6873467248990588
0.8973345677873759,0.012619376420352562,1.1362475758523158e-06,0.3936220631240599,0.05747446851007744,0.696272145200034
0.8987034402168775,0.012744158120609318,1.1823299459276082e-06,0.39557906349874,0.05464269765780165,0.7053553277097275
0.9000723126463792,0.012870919644024013,1.232258186524835e-06,0.3974932486497968,0.051950477651880975,0.7145831130798526
0.9014411850758809,0.012999493375935681,1.286275476290628e-06,0.39936223485035655,0.049390931669949435,0.7239432964779946
0.9028100575053826,0.01312972405590452,1.344649988372295e-06,0.401184016728878,0.0469575217887787,0.7334245711818893
0.9041789299348842,0.013261468029325672,1.407676755647589e-06,0.4029567840723423,0.04464403228469089,0.7430164751866833
0.9055478023643859,0.013394592539287957,1.4756798070077068e-06,0.4046788013826693,0.04244455375701276,0.7527093403449688
0.9069166747938876,0.013528975052901664,1.549014593806483e-06,0.40634833269389237,0.04035346803402494,0.7624942437326453
0.9082855472233893,0.013664502618363487,1.6280707312265861e-06,0.40796359863285564,0.038365433822859944,0.7723629610528879
0.909654419652891,0.013801071250425772,1.7132750849585192e-06,0.40952275605862337,0.036475373066702725,0.7823079219703286
0.9110232920823926,0.013938585342867406,1.8050952395025155e-06,0.4110238931312158,0.03467845797445513,0.792322167318795
0.9123921645118943,0.014076957107156812,1.904043390811831e-06,0.41246503454984396,0.03297009868974445,0.8023993081568418
0.913761036941396,0.014216106036849523,2.0106807131083477e-06,0.41384415312099243,0.03134593156779055,0.8125334866617371
0.9151299093708977,0.014355958397447374,2.1256222577291067e-06,0.4151591848837784,0.02980180803019913,0.8227193388591468
0.9164987818003993,0.014496446741515338,2.2495424510313264e-06,0.4164080458207943,0.028333783969228452,0.8329519591856599
0.917867654229901,0.014637509448845025,2.3831812689465086e-06,0.41758864878203195,0.026938109674480244,0.8432268668769936
0.9192365266594027,0.014779090291399982,2.5273511780224263e-06,0.4186989196963518,0.025611220256303847,0.853539974167982
0.9206053990889044,0.014921138022695932,2.682944947067964e-06,0.4197368124760434,0.024349726541473347,0.8638875562824272
0.921974271518406,0.015063605991175748,2.850944450228015e-06,0.4207003222632413,0.023150406417907138,0.8742662231825953
0.9233431439479077,0.015206451777042546,3.0324306019554535e-06,0.4215874968434479,0.022010196606350216,0.8846728930400576
0.9247120163774094,0.015349636851922525,3.2285945875100805e-06,0.4223964461773137,0.02092618483803434,0.8951047673821421
0.9260808888069111,0.01549312626064646,3.440750580026247e-06,0.4231253500894581,0.01989560241837353,0.9055593078617351
0.9274497612364128,0.01563688832436713,3.670350167740629e-06,0.42377246421195575,0.018915817157744496,0.9160342145926257
0.9288186336659144,0.015780894364171242,3.918998753753386e-06,0.42433612431736867,0.017984326651346413,0.9265274059881154
0.9301875060954161,0.01592511844429878,4.188474237061697e-06,0.424814749197515,0.017098751891034755,0.9370370000371887
0.9315563785249178,0.01606953713404944,4.480748339232308e-06,0.4252068422537414,0.01625683119288216,0.9475612969500958
0.9329252509544195,0.016214129287435194,4.798011008061325e-06,0.42551099196565845,0.01545641442503764,0.9580987631037057
0.9342941233839211,0.016358875839627824,5.142698410523155e-06,0.42572587140057755,0.014695457521237272,0.9686480162163054
0.9356629958134228,0.016503759619250314,5.517525125528636e-06,0.42585023691719776,0.013972017266066509,0.9792078116815885
0.9370318682429245,0.016648765175569548,5.925521266647314e-06,0.42588292620586654,0.013284246338789276,0.9897770299922933
0.9384007406724262,0.016793878618273885,6.370075334009284e-06,0.4258228388014248,0.012630388603244959,1.0003546651852013
0.9397696131019279,0.016939087453300142,6.854983316298445e-06,0.4256688055094552,0.012008774631970193,1.010939813660256
0.9411384855314295,0.01708438044513735,7.384506213248095e-06,0.4254197908378613,0.011417817453312693,1.021531662944525
0.9425073579609312,0.017229747520529325,7.963437812125195e-06,0.4250749309368415,0.010856008510967437,1.0321294844533666
0.9438762303904329,0.017375179654977157,8.597183594996984e-06,0.4246334277785899,0.010321913825982219,1.0427326258545035
0.9452451028199346,0.017520668770852593,9.291853369482315e-06,0.42409454552796894,0.00981417035182467,1.0533405036690244
0.9466139752494362,0.01766620764453998,1.0054370478964329e-05,0.42345760688451733,0.009331482513715652,1.0639525965305003
0.9479828476789379,0.017811789821910128,1.0892601041321656e-05,0.4227219894428778,0.008872618924046416,1.0745684390512167
0.9493517201084396,0.017957409541469196,1.1815507476396667e-05,0.42188712211007,0.008436409266334231,1.0851876162474703
0.9507205925379413,0.018103061664564667,1.2833331603817556e-05,0.42095248161035226,0.008021741340853164,1.0958097584787687
0.952089464967443,0.018248747035848237,1.3957813886889221e-05,0.4199834443039929,0.007627558265822176,1.1064345368586488
0.9534583373969446,0.018394534129449185,1.520245705173028e-05,0.419859674776175,0.007252855828859596,1.117061659097613
0.9548272098264463,0.018540442097193757,1.6582844446267345e-05,0.42085681187001744,0.006896679984335163,1.1276908657414066
0.956196082255948,0.018686467477899264,1.8117026296881762e-05,0.42297512195270526,0.006558124493277065,1.1383219267704348
0.9575649546854497,0.01883260680524658,1.9825990725373194e-05,0.4262148111493837,0.006236328703623018,1.1489546385286362
