Time [s],Lmtc [m],STIM [ ],Fsee [N],Gamma [ ],Lcerel [ ]
0.0,0.020165993698638585,0.9999998477439543,1.7121209392256365,0.09655359025453918,1.2410437064916053
0.0018000173734711445,0.020172123692527088,0.999999823110049,2.6437476122645944,0.12556350730112661,1.239020367817231
0.003600034746942289,0.020149651124368045,0.9999997824295881,3.456864248395574,0.153641906844938,1.2355671291186932
0.005400052120413433,0.020110589793930326,0.9999997284807103,4.1142665227346455,0.18081869966345934,1.2314042703890875
0.007200069493884578,0.020061183732216263,0.9999996633570121,4.620652000326945,0.20712283617978516,1.2268600443102846
0.009000086867355723,0.020005321825136178,0.9999995890193295,5.008090532576292,0.23258233727789124,1.2221012205237543
0.010800104240826867,0.019945423136302046,0.999999507302742,5.309823907740815,0.25722432414613783,1.2172183706159223
0.01260012161429801,0.019882982893105534,0.9999994198774584,5.551542519280748,0.281075047162715,1.212263578995442
0.014400138987769154,0.01981893335040483,0.9999993282203926,5.75119953600569,0.30415991385231095,1.207268286698632
0.0162001563612403,0.019753865953355855,0.999999233605453,5.920919722677576,0.3265035159441721,1.2022522286368051
0.018000173734711442,0.019688163671316736,0.9999991371083714,6.068846353982595,0.3481296555610088,1.1972281684304142
0.019800191108182586,0.019622079495925586,0.9999990396204982,6.20049112809236,0.3690613705671233,1.1922045400623342
0.02160020848165373,0.01955578353574821,0.9999989418671451,6.319636918020842,0.389320959103044,1.1871869910227817
0.023400225855124874,0.01948939180781382,0.9999988444274824,6.428923589101248,0.4089300033329363,1.182179320731245
0.025200243228596018,0.019422984229684068,0.9999987477541357,6.530226003135527,0.42790939243011494,1.1771840715269173
0.02700026060206716,0.01935661612045815,0.9999986521914418,6.624899331894404,0.4462793448251138,1.172202912345128
0.028800277975538306,0.019290325717075802,0.9999985579918584,6.713940057346016,0.4640594297399516,1.1672368944774134
0.03060029534900945,0.019224139190673173,0.999998465330351,6.798093105013831,0.481268588031453,1.1622866260331552
0.0324003127224806,0.019158074060574157,0.9999983743167798,6.87792419713956,0.4979251523657438,1.1573523933574337
0.03420033009595174,0.019092141559955755,0.9999982850064173,6.953869455178296,0.5140468667453395,1.152434247023544
0.036000347469422884,0.019026348302262283,0.9999981974087697,7.026269909802217,0.5296509054095473,1.1475320636699258
0.03780036484289403,0.01896069747269493,0.9999981114949016,7.09539585437404,0.5447538911282563,1.1426455910573976
0.03960038221636517,0.018895189691667903,0.9999980272034471,7.161464266224504,0.559371912908544,1.1377744812749244
0.041400399589836316,0.018829823648134007,0.999997944445487,7.224651431075021,0.5735205431329105,1.1329183154488385
0.04320041696330746,0.01876459656912311,0.9999978631084413,7.285102204144533,0.587214854147356,1.1280766222784282
0.045000434336778604,0.01869950457115269,0.9999977830591138,7.342936883200488,0.6004694343169363,1.1232488920311874
0.04680045171024975,0.018634542925391732,0.9999977041459965,7.398256365596314,0.6132984035658674,1.1184345871623371
0.04860046908372089,0.01856970625914046,0.9999976262009267,7.451146058115667,0.6257154284187049,1.1136331503997203
0.050400486457192036,0.01850498870979411,0.9999975490401669,7.501678870531219,0.6377337365586038,1.108844010908625
0.05220050383066318,0.018440384043012948,0.9999974724649627,7.549917529063587,0.6493661309181392,1.1040665889903984
0.05400052120413432,0.0183758843527339,0.9999973962616154,7.595844552536969,0.6606250033176871,1.0993002996532741
0.05580053857760547,0.01831147971765903,0.9999973202010916,7.639341219121384,0.6715223476658742,1.094544555310042
0.05760055595107661,0.01824716319056044,0.9999972440381767,7.680443814528934,0.6820697727361461,1.0897987677956607
0.059400573324547755,0.018182927833939877,0.9999971675101649,7.719190365077472,0.6922785145330473,1.0850623498523497
0.0612005906980189,0.01811876661993731,0.9999970903350581,7.755614555802526,0.7021594482613766,1.080334716195617
0.06300060807149005,0.018054672454659818,0.9999970122092352,7.789746316238525,0.7117230999109476,1.0756152842489952
0.0648006254449612,0.017990638196361364,0.9999969328045265,7.8216122981397085,0.7209796574692912,1.0709034746157322
0.06660064281843234,0.01792665666871936,0.9999968517646088,7.851236267432217,0.7299389817742125,1.066198711340755
0.06840066019190348,0.01786272067017832,0.9999967687006056,7.878639427608984,0.7386106170177624,1.0615004220046906
0.07020067756537463,0.0177988229801203,0.9999966831857431,7.903840687946796,0.747003800912775,1.0568080376828093
0.07200069493884577,0.017734956362459003,0.9999965947488662,7.926856887013223,0.7551274745327864,1.0521209927947741
0.07380071231231691,0.017671113567128048,0.9999965028665618,7.947702979702893,0.7629902918357822,1.0474387248656096
0.07560072968578806,0.017607287329834905,0.9999964069535615,7.966392194326753,0.7706006288818811,1.0427606742139668
0.0774007470592592,0.017543470370374452,0.9999963063509948,7.982936164947452,0.7779665927547297,1.0380862835803328
0.07920076443273034,0.017479655389734138,0.9999962003119328,7.9973450431162725,0.7850960301960495,1.0334149977050775
0.08100078180620149,0.01741583506617399,0.9999960879834819,8.009627592352587,0.7919965359624623,1.0287462628640278
0.08280079917967263,0.01735200205042483,0.9999959683844394,8.019791268063898,0.7986754609134036,1.024079526367463
0.08460081655314378,0.017288148960116618,0.9999958403771826,8.027842285093943,0.8051399198386083,1.0194142360269742
0.08640083392661492,0.01722426837352245,0.999995702631987,8.033785674678679,0.8113967990333547,1.0147498395934256
0.08820085130008606,0.017160352822682665,0.9999955535812831,8.03762533226235,0.8174527636293162,1.0100857841682622
0.09000086867355721,0.017096394785955604,0.9999953913603823,8.03936405736132,0.8233142646885546,1.0054215155895776
0.09180088604702835,0.01703238710926316,0.9999952137304643,8.03902638918783,0.8289875460678128,1.0007564777936397
0.0936009034204995,0.016968322153302313,0.9999950179852009,8.036598478932426,0.8344786510599225,0.9960901331377454
0.09540092079397064,0.01690418997506498,0.9999948008210917,8.031848963269105,0.839793428818961,0.9914220757645196
0.09720093816744178,0.016839985553690623,0.9999945581429003,8.024770481696148,0.8449375405749224,0.9867519526407436
0.09900095554091293,0.01677570390643563,0.9999942848029909,8.015361254842476,0.8499164656425946,0.9820794072562612
0.10080097291438407,0.016711339969714575,0.9999939742349133,8.003618741832739,0.8547355072291123,0.9774040796707613
0.10260099028785521,0.01664688859533704,0.999993617922802,7.989539648493002,0.8593997980432696,0.9727256062487813
0.10440100766132636,0.016582344546382508,0.9999932046138205,7.973119932870053,0.8639143057076722,0.9680436193775425
0.1062010250347975,0.016517702492715784,0.9999927191157038,7.954354808274809,0.8682838379718186,0.9633577471676602
0.10800104240826865,0.01645295700614099,0.999992140399814,7.933238744018711,0.8725130477191761,0.9586676131365536
0.10980105978173979,0.01638810255518894,0.999991438491878,7.909765463975468,0.8766064377525684,0.953972835874235
0.11160107715521093,0.016323133499528762,0.999990569138695,7.88392794306678,0.8805683653260628,0.9492730286909813
0.11340109452868208,0.0162580440839917,0.9999894641435835,7.855718401737103,0.8844030463600859,0.9445677992462651
0.11520111190215322,0.016192828432190817,0.9999880126243574,7.825128298444082,0.8881145592108662,0.9398567491581388
0.11700112927562437,0.01612748053971731,0.9999860214005328,7.7921483201373105,0.8917068477170254,0.9351394735921722
0.11880114664909551,0.016061994266889146,0.9999831212154798,7.756768370602189,0.8951837228763836,0.9304155608289005
0.12060116402256665,0.01599636333102212,0.9999785068822589,7.7189775563347665,0.8985488614577184,0.9256845918086892
0.1224011813960378,0.01593058129818409,0.9999700245294437,7.678764169108993,0.9018057963131869,0.9209461396530589
0.12420119876950894,0.01586464157439632,0.9999493132142189,7.636115663982061,0.9049578776933231,0.9161997691624433
0.1260012161429801,0.015798537397675342,0.9998218149894512,7.591018701043709,0.9080080798015854,0.9114450362964994
0.12780123351645126,0.015732322498744945,4.968944392704745e-05,7.546581490131252,0.9109562450866194,0.9066814877536254
0.12960125088992241,0.015665520086897346,1.5964496171980992e-05,7.476577268598465,0.8523926821570031,0.901911645022152
0.13140126826339357,0.015598517047835861,8.216531503833476e-06,7.398781161924642,0.797592132542738,0.8971387859472867
0.13320128563686473,0.015531298367707785,4.930786306045446e-06,7.311959143582903,0.7463143338604048,0.8923637751093412
0.1350013030103359,0.015463847538290217,3.1940646556665813e-06,7.214640642298487,0.6983330875107855,0.8875877815121465
0.13680132038380705,0.015396146694504653,2.1657038821287123e-06,7.105098215565953,0.6534365504110896,0.8828123477939959
0.1386013377572782,0.015328177049168102,1.5138048413795458e-06,6.9813400224859254,0.6114264452933458,0.8780394734951985
0.14040135513074936,0.01525991982896154,1.0816449197189924e-06,6.841125456753359,0.5721172212372455,0.8732717148550346
0.14220137250422052,0.015191357991803314,7.860914757489801e-07,6.682017502391193,0.5353352467273599,0.8685123038576525
0.14400138987769168,0.015122479096021893,5.7932337924731e-07,6.501488282867752,0.5009180480593378,0.8637652895424254
0.14580140725116283,0.015053279770918289,4.321607463803766e-07,6.2970950179648275,0.468713594249681,0.8590357048969066
0.147601424624634,0.01498377226751129,3.259950717675207e-07,6.066739578829079,0.4385796268484995,0.8543297629426193
0.14940144199810515,0.014913993488188984,2.485533056804412e-07,5.809012841323288,0.41038303232126905,0.8496550858647111
0.1512014593715763,0.014844016634376395,1.9152761009159347e-07,5.523602567993007,0.3839992545092251,0.845020971133293
0.15300147674504747,0.014773965121919778,1.4917889869293874e-07,5.211711339744033,0.3593117447115982,0.8404386983520317
0.15480149411851862,0.014704027722436609,1.1747867023666934e-07,4.87639641445622,0.3362114470335005,0.8359218798912408
0.15660151149198978,0.014634473176359275,9.356296675618897e-08,4.52272207425606,0.31459631676676947,0.8314868575995932
0.15840152886546094,0.014565662186531703,7.537471277284983e-08,4.1576281077458255,0.2943708697000688,0.8271531500561586
0.1602015462389321,0.014498055355594251,6.142364225344739e-08,3.789480540723795,0.2754457603818518,0.8229439720191365
0.16200156361240325,0.014432217946312541,5.06218424271166e-08,3.4273713840516296,0.2577373874822991,0.8188869154729648
0.1638015809858744,0.01436882636792904,4.216965628030155e-08,3.0803127389399694,0.2411675245168424,0.8150150707925699
0.16560159835934557,0.014308684654439314,3.547715134274302e-08,2.7564229734613184,0.22566297430395552,0.8113692148461672
0.16740161573281673,0.014252754475225188,3.0112497051521396e-08,2.4619948775363594,0.21115524563357493,0.8080018537902441
0.16920163310628789,0.014202177114907932,2.576903295872977e-08,2.2002527911183525,0.1975802507199056,0.8049824589562762
0.17100165047975904,0.01415821609282689,2.223702534464672e-08,1.970255184098871,0.1848780221035412,0.8023980022958346
0.1728016678532302,0.014122014240844777,1.936517635466892e-08,1.7675425190795895,0.17299244775275938,0.8003363250947708
0.17460168522670136,0.014094152597563726,1.7018499609317347e-08,1.5872160479334536,0.16187102319326954,0.7988473466500365
0.17640170260017252,0.01407427846403048,1.506149906181651e-08,1.4266042536048855,0.15146461957138055,0.7979078996643012
0.17820171997364367,0.014061187681292104,1.3373199357074406e-08,1.2848442702926681,0.14172726662782165,0.7974275147793869
0.18000173734711483,0.014051091907264618,8.560038724237636e-08,1.1165449726944972,0.1326159496256246,0.7972895116264622
0.1804239421958659,0.014050402688544909,8.41254831741343e-08,1.1029413265155057,0.13056508291103455,0.797289511626461
0.180846147044617,0.014049463353150677,8.267949672829127e-08,1.081993432936507,0.12854593463730754,0.7972990120783149
0.18126835189336807,0.01404874986164363,8.126109304537702e-08,1.063584461059229,0.1265580142512108,0.797316149737118
0.18169055674211915,0.014048293530356016,7.987032309898493e-08,1.0479524627955885,0.1246008387863294,0.7973420726965255
0.18211276159087023,0.014048141752951058,7.850773813233567e-08,1.035494216263781,0.12267393274575097,0.7973784950556999
0.1825349664396213,0.014048365994061255,7.717474243890897e-08,1.0268141627760128,0.1207768279865514,0.7974280935297758
0.18295717128837238,0.014049076852375247,7.587436797581332e-08,1.0228103992958484,0.11890906360607138,0.7974952937128124
0.18337937613712346,0.014050445458281918,7.461313381356927e-08,1.0246409474792113,0.11707018582996509,0.7975880127220577
0.18380158098587454,0.014052701232856023,7.340536351440797e-08,1.032606913570517,0.1152597479020082,0.7977218800698013
0.18422378583462562,0.014056037535443775,7.22780836594782e-08,1.04180880205326,0.1134773099756771,0.797929912448372
0.1846459906833767,0.014060811438217122,7.126189469285036e-08,1.0437241256890852,0.11172243900748091,0.7982705841554808
0.18506819553212778,0.014067766674561095,7.037150048583915e-08,1.0383081846228501,0.10999470865180183,0.7987981994538053
0.18549040038087886,0.014077392324059456,6.960357327772894e-08,1.0293729709532833,0.10829369915706069,0.7995339969031514
0.18591260522962993,0.014089839531155252,6.894782020054115e-08,1.0192712664848658,0.10661899726345526,0.8004800991191335
0.186334810078381,0.014105108808732471,6.839318939919082e-08,1.0091124273520409,0.10497019610245195,0.8016323153900347
0.1867570149271321,0.014123143887664153,6.792963675761072e-08,0.999404661317306,0.10334689509792709,0.8029845726516078
0.18717921977588317,0.014143867521172849,6.754846600544104e-08,0.9903747527103511,0.10174869986886483,0.8045303310902653
0.18760142462463425,0.01416719561353511,6.724227825468666e-08,0.9821122386112011,0.10017522213356539,0.8062630757024175
0.18802362947338533,0.014193043191343091,6.700482529172477e-08,0.9746370028433894,0.0986260796153337,0.8081764983930775
0.1884458343221364,0.014221327049168194,6.683085268396978e-08,0.9679328212150521,0.09710089594962444,0.810264564314611
0.1888680391708875,0.014251966927062385,6.671595759451418e-08,0.9619648810513352,0.09559930059262102,0.8125215308726965
0.18929024401963856,0.014284885996474511,6.665646695540389e-08,0.956689304168132,0.09412092873122574,0.8149419462151813
0.18971244886838964,0.01432001100473576,6.664933546870154e-08,0.9520584685469844,0.09266542119444073,0.8175206386448327
0.19013465371714072,0.014357272246378684,6.66920610960572e-08,0.9480240253821743,0.09123242436611748,0.8202527021714605
0.1905568585658918,0.014396603446461195,6.678261540276089e-08,0.9445386070916526,0.08982159009905438,0.8231334806977765
0.19097906341464288,0.014437941600805627,6.691938633483295e-08,0.9415567714787532,0.0884325756304225,0.8261585520666956
0.19140126826339396,0.014481226797552935,6.710113135997055e-08,0.9390354915108856,0.08706504349849735,0.8293237125772415
0.19182347311214504,0.014526402033533038,6.732693926150933e-08,0.9369343717467682,0.08571866146067869,0.8326249622597534
0.19224567796089612,0.01457341303295422,6.759619919447154e-08,0.9352156999673509,0.08439310241277725,0.8360584910349852
0.1926678828096472,0.014622208072517703,6.790857588399508e-08,0.9338444004020348,0.08308804430954927,0.8396206657929309
0.19309008765839827,0.014672737815098265,6.826399007139682e-08,0.9327879297618511,0.08180317008645975,0.8433080183797654
0.19351229250714935,0.0147249551529774,6.866260349830529e-08,0.932016141911792,0.0805381675826552,0.8471172344563966
0.19393449735590043,0.014778815060933377,6.910480787188121e-08,0.9315011374424681,0.07929272946512776,0.8510451431798794
0.1943567022046515,0.01483427445909109,6.959121738073502e-08,0.9312171083501538,0.07806655315405191,0.8550887076538451
0.1947789070534026,0.01489129208520251,7.012266443743746e-08,0.9311401841619108,0.07685934074927553,0.8592450160930337
0.19520111190215367,0.014949828375901003,7.070019841427891e-08,0.9312482833423636,0.07567079895794825,0.8635112736482428
0.19562331675090475,0.015009845356408875,7.132508721813257e-08,0.9315209721963821,0.07450063902326858,0.8678847948404526
0.19604552159965583,0.015071306538153782,7.199882162125612e-08,0.9319393324275017,0.07334857665433352,0.8723629965559472
0.1964677264484069,0.015134176823750217,7.272312233048718e-08,0.9324858378302902,0.07221433195707283,0.8769433915575846
0.19688993129715798,0.015198422418817213,7.349994984006886e-08,0.9331442401582299,0.07109762936625158,0.8816235824706966
0.19731213614590906,0.015264010750127562,7.433151717560878e-08,0.9338994639354702,0.0699981975785248,0.8864012562053944
0.19773434099466014,0.015330910389611926,7.52203057006573e-08,0.9347375098158422,0.06891576948652732,0.8912741787801446
0.19815654584341122,0.015399090983771895,7.616908422535064e-08,0.9356453659998862,0.0678500821139836,0.8962401905144151
0.1985787506921623,0.015468523188086853,7.718093173090703e-08,0.9366109271757633,0.06680087655182104,0.901297201560896
0.19900095554091338,0.015539178606029937,7.825926410715849e-08,0.9376229204364568,0.06576789789527199,0.9064431877503057
0.19942316038966446,0.015611029732337633,7.940786539581727e-08,0.9386708376323389,0.06475089518194874,0.9116761867241052
0.19984536523841553,0.01568404990020516,8.063092414346809e-08,0.9397448736376294,0.063749621330877,0.9169942943325337
0.2002675700871666,0.015758213232106036,8.19330755997565e-08,0.9408358700361027,0.06276383308247252,0.9223956612773376
0.2006897749359177,0.0158334945939583,8.331945065337707e-08,0.941935263762438,0.06179329093944691,0.9278784899802967
0.20111197978466877,0.015909869552382362,8.479573258806465e-08,0.9430350402682056,0.06083775910862808,0.9334410316602744
0.20153418463341985,0.015987314334816517,8.636822297150388e-08,0.944127690814462,0.0598970054436813,0.9390815836029854
0.20195638948217093,0.01606580579227491,8.804391827290712e-08,0.9452061735249704,0.05897080138871729,0.9447984866089905
0.202378594330922,0.01614532136455083,8.983059915416624e-08,0.9462638778648423,0.05805892192277341,0.9505901226066747
0.20280079917967309,0.01622583904768393,9.173693481336639e-08,0.9472945922382653,0.057161145505155254,0.9564549124180377
0.20322300402842416,0.01630733736352518,9.377260530213253e-08,0.9482924744260841,0.05627725402162472,0.9623913136661628
0.20364520887717524,0.01638979533124671,9.594844542146352e-08,0.9492520246089478,0.0554070327314227,0.9683978188141361
0.20406741372592632,0.016473192440656287,9.827661466647026e-08,0.9501680607448147,0.05455027021511292,0.9744729533260381
0.2044896185746774,0.01655750862718745,1.0077079879505757e-07,0.9510356960906629,0.05370675832323546,0.9806152739413818
0.20491182342342848,0.016642724248446938,1.0344645001497967e-07,0.9518503186775699,0.052876292125756966,0.9868233670550847
0.20533402827217956,0.016728820062210322,1.0632107462109633e-07,0.952607572565834,0.052058669862307054,0.9930958471956919
0.20575623312093064,0.0168157772053933,1.0941457922445898e-07,0.9533033339088476,0.05125369289318816,0.9994313555951534
0.20617843796968172,0.016903577169864008,1.1274968912158769e-07,0.9539336258368427,0.05046116565114888,1.0058285587717177
0.2066006428184328,0.016992201784528087,1.1635245873705008e-07,0.954494690505225,0.04968089559390935,1.012286146943495
0.20702284766718387,0.017081633205580236,1.2025289914946358e-07,0.954983043524055,0.04891269315742902,1.0188028331078451
0.20744505251593495,0.017171853897870158,1.244857523657162e-07,0.9553953846398595,0.048156371709906554,1.0253773520452838
0.20786725736468603,0.017262846619722362,1.2909145502018197e-07,0.955728586420674,0.04741174750650357,1.0320084592639698
0.2082894622134371,0.017354594408673856,1.3411734806695507e-07,0.9559796843257797,0.04667863964478305,1.038694930005329
0.2087116670621882,0.017447080568048712,1.3961920891650433e-07,0.9561458676310804,0.045956870020856036,1.0454355583070234
