Time [s],Lmtc [m],STIM [ ],Fsee [N],Gamma [ ],Lcerel [ ]
0.0,0.020168419799950803,0.9999998479663088,1.8116595601704613,0.09969108032990534,1.2409287863728768
0.0018231035392458394,0.020170482760252868,0.9999998212089587,2.7463221400769955,0.12896493300951023,1.238657677976214
0.0036462070784916787,0.020145173439655883,0.9999997786633695,3.5521415620093104,0.15728693531867105,1.2350427527468628
0.005469310617737518,0.020103878423684017,0.9999997229813632,4.195985480251922,0.18468803648985244,1.2307591205805155
0.007292414156983357,0.020052660850297,0.9999996562865523,4.688669544305783,0.211198179516686,1.226116166887457
0.009115517696229196,0.01999528915857639,0.9999995805737318,5.064923459392101,0.2368463338550016,1.2212714246671996
0.010938621235475034,0.019934088777147113,0.9999994977006216,5.358276672083543,0.26166052707355897,1.2163105977639863
0.012761724774720873,0.019870489069135935,0.9999994093468646,5.593925576687778,0.28566787547537653,1.2112830626483755
0.014584828313966711,0.019805378267279433,0.9999993169877942,5.789231805753611,0.30889461372206284,1.2062186672273492
0.01640793185321255,0.019739318790429235,0.9999992218876959,5.955830898709087,0.3313661234940515,1.2011361576561808
0.01823103539245839,0.01967267434197597,0.9999991251073242,6.101504249883951,0.3531069612187182,1.1960476530751674
0.020054138931704227,0.019605684908041432,0.9999990275198365,6.231506526327341,0.37414088489715286,1.190961148401112
0.021877242470950065,0.01953851162393804,0.999998929830722,6.349440256140719,0.39449088005916844,1.1858819798875015
0.023700346010195904,0.019471264165400983,0.9999988325988182,6.457818659324264,0.4141791848750209,1.1808137183303116
0.025523449549441742,0.01940401785720361,0.999998736256656,6.558427024800731,0.4332273144512983,1.175758732675511
0.02734655308868758,0.01933682460999012,0.9999986411291901,6.652556526976426,0.45165608433747856,1.1707185565271048
0.02916965662793342,0.019269720070460072,0.9999985474504773,6.741157399778921,0.4694856332687751,1.1656941328004897
0.030992760167179258,0.01920272839587007,0.9999984553781914,6.824940753122793,0.48673544517003337,1.1606859807920555
0.0328158637064251,0.019135865505310184,0.9999983650060386,6.904447296180664,0.5034243704446324,1.1556943125486745
0.03463896724567094,0.019069141333892897,0.9999982763742342,6.980094440680713,0.5195706465715777,1.1507191153301632
0.036462070784916784,0.01900256142143298,0.9999981894782428,7.052209072500479,0.535191918033209,1.145760210923759
0.038285174324162626,0.01893612804879981,0.9999981042759881,7.121050682518053,0.5503052555952396,1.140817298862456
0.04010827786340847,0.018869841061619846,0.9999980206937358,7.186827918292996,0.5649271749601308,1.1358899882650502
0.04193138140265431,0.01880369847448763,0.999997938630827,7.249710583053342,0.5790736548141375,1.1309778215133288
0.04375448494190015,0.018737696918858793,0.9999978579634223,7.309838442067922,0.5927601542877006,1.1260802919949955
0.04557758848114599,0.018671831978134726,0.9999977785473905,7.367327761601735,0.6060016298482325,1.1211968574807158
0.047400692020391835,0.018606098440340516,0.9999977002204506,7.422276218025408,0.6188125516437195,1.1163269502544473
0.04922379555963768,0.01854049048992621,0.9999976228036616,7.474766621913306,0.6312069193149769,1.1114699848058367
0.05104689909888352,0.018475001854129935,0.9999975461023232,7.524869771174201,0.6431982772938127,1.1066253636759467
0.05287000263812936,0.018409625775831814,0.9999974699063442,7.5726394766512515,0.6547997296037932,1.1017924818931069
0.0546931061773752,0.018344352063992774,0.9999973939901075,7.6179571889390365,0.6660239541797703,1.0969707303246892
0.056516209716621045,0.01827917229768984,0.9999973181118503,7.66079749985922,0.6768832167217991,1.0921594981899558
0.05833931325586689,0.01821407933123372,0.999997242012561,7.701202468348901,0.6873893840985711,1.0873581749198733
0.06016241679511273,0.018149065908088756,0.9999971654143731,7.739209225382779,0.6975539373149938,1.0825661515059215
0.06198552033435857,0.01808412469063637,0.9999970880184236,7.774850666039714,0.7073879840580719,1.0777828214470468
0.0638086238736044,0.018019248282512647,0.9999970095021204,7.8081560106709285,0.7169022708347869,1.0730075813791777
0.06563172741285024,0.01795442924505836,0.9999969295157397,7.839151262842758,0.7261071947152193,1.0682398314528745
0.06745483095209608,0.01788966010907304,0.9999968476782466,7.86785958527799,0.7350128146937297,1.0634789755102805
0.06927793449134191,0.017824933382800893,0.999996763572199,7.894301610189896,0.7436288626805886,1.058724421101435
0.07110103803058775,0.01776024155687414,0.9999966767375489,7.918495696757829,0.7519647541360468,1.0539755793713805
0.07292414156983358,0.017695577106783295,0.9999965866641017,7.940458145722496,0.7600295983584322,1.0492318648427699
0.07474724510907942,0.017630932493322406,0.9999964927823214,7.960203378957848,0.7678322084374805,1.0444926951133913
0.07657034864832525,0.0175663001613624,0.9999963944520744,7.977744090242243,0.775381110883731,1.0397574904838416
0.07839345218757109,0.01750167253723086,0.9999962909487767,7.993091372183437,0.7826845549444541,1.0350256735272658
0.08021655572681692,0.017437042024917283,0.9999961814462409,8.00625482326298,0.7897505216162158,1.0302966686104178
0.08203965926606276,0.017372401001275364,0.9999960649952808,8.017242638188042,0.7965867323638413,1.0255699013731536
0.08386276280530859,0.01730774181035602,0.9999959404968122,8.0260616841253,0.803200657555177,1.0208447981717401
0.08568586634455443,0.017243056756973806,0.9999958066677305,8.032717564903415,0.8095995246207245,1.0161207854899361
0.08750896988380026,0.017178338099584235,0.9999956619972028,8.037214674880802,0.8157903259468497,1.011397289320637
0.0893320734230461,0.017113578042528665,0.9999955046900806,8.039556243861671,0.8217798265109191,1.0066737345198926
0.09115517696229193,0.01704876886572152,0.9999953325929551,8.039751707512583,0.8275745712663383,1.0019495441342923
0.09297828050153777,0.01698390360892524,0.9999951431026781,8.037848574363029,0.8331808922850581,0.9972241455369486
0.0948013840407836,0.016918971230253606,0.9999949330469315,8.033593979342255,0.8386049156648665,0.9924970819732772
0.09662448758002944,0.01685396592309032,0.9999946985002077,8.026950983650469,0.8438525682082033,0.9877679834859284
0.09844759111927527,0.016788882530321004,0.999994434534403,8.01791791711781,0.8489295838778288,0.9830364805431064
0.1002706946585211,0.016723715810600052,0.9999941348714594,8.006492306166775,0.853841510034471,0.978302200062899
0.10209379819776694,0.01665846043442434,0.9999937913813822,7.992670883198581,0.858593713460365,0.9735647651348875
0.10391690173701278,0.016593110979815365,0.9999933933386925,7.976449593027476,0.8631913861706079,0.968823794723208
0.10574000527625861,0.01652766192761331,0.9999929262898419,7.957823596602988,0.8676395510113801,0.9640789033511374
0.10756310881550445,0.016462107656381838,0.9999923702713973,7.936787272212956,0.8719430670393145,0.9593297007670631
0.10938621235475028,0.016396442436918412,0.9999916968989105,7.913334214318987,0.876106634668017,0.9545757915915024
0.11120931589399612,0.01633066042636118,0.9999908643927513,7.887457230138513,0.8801348005525893,0.9498167749446794
0.11303241943324195,0.016264755661879265,0.9999898086067169,7.859148334051203,0.8840319621535953,0.9450522440539736
0.11485552297248779,0.01619872205392979,0.9999884257323004,7.828398739867177,0.8878023718609237,0.9402817858404051
0.11667862651173362,0.016132553379060634,0.9999865360187388,7.795198850940529,0.8914501404211923,0.9355049804831681
0.11850173005097946,0.01606624327223355,0.9999837987551964,7.759538248019345,0.8949792390740626,0.9307214009610946
0.12032483359022529,0.015999785218635803,0.9999794800924078,7.721405674526979,0.8983934988547362,0.9259306125698377
0.12214793712947113,0.01593317254493951,0.999971656027988,7.680789018499881,0.9016966023698483,0.9211321724136572
0.12397104066871696,0.015866398409966214,0.99995315410905,7.637675289847764,0.9048920499258164,0.9163256288714973
0.1257941442079628,0.01579945579562819,0.99985527810225,7.592050635247125,0.9079829948029102,0.9115105210422098
0.12761724774720865,0.015732399008205715,5.4948989992539427e-05,7.547066096618003,0.9109702540918145,0.9066863782531116
0.12944035128645448,0.015664744969211185,1.617290759558676e-05,7.476129572828434,0.8516800027285292,0.9018557838820734
0.13126345482570032,0.015596885040071876,8.146714588945569e-06,7.397187382792743,0.796246392515806,0.8970221089192956
0.13308655836494615,0.015528803612478761,4.836552869923338e-06,7.30895341474584,0.7444203985864181,0.892186257807606
0.13490966190419199,0.01546048350895911,3.1109143404450596e-06,7.2098919904509815,0.6959675104341129,0.8873494571676122
0.13673276544343782,0.015391906140179159,2.0979856071045646e-06,7.098196621879668,0.6506682778676142,0.8825133300575976
0.13855586898268366,0.015323051988916524,1.4599376024967734e-06,6.971782882608965,0.6083174778248589,0.8776799854988632
0.1403789725219295,0.015253901648750422,1.0391112567965425e-06,6.828306945952727,0.5687232230944926,0.8728521259957472
0.14220207606117533,0.015184437729416899,7.525629524966236e-07,6.665224822969592,0.5317061060207968,0.868033176044034
0.14402517960042116,0.015114648040483833,5.528765667919711e-07,6.479910448335986,0.49709839108042514,0.863227434949431
0.145848283139667,0.015044530549869543,4.112640817706434e-07,6.269851271262746,0.464743257463113,0.8584402576125015
0.14767138667891283,0.014974100637638718,3.0944491537188954e-07,6.03293488280868,0.4344940898523727,0.8536782672565403
0.14949449021815867,0.01490340105941523,2.3540785311827582e-07,5.7678258232744595,0.4062138148402598,0.8489496043297367
0.1513175937574045,0.014832514718452202,1.8105065090103728e-07,5.474405462531088,0.37977428025863524,0.8442642158887304
0.15314069729665034,0.01476157977089735,1.4079478997602377e-07,5.154211282717916,0.3550556747557275,0.8396341894725375
0.15496380083589617,0.01469080580508785,1.1073705800979577e-07,4.810774523563032,0.33194598506192585,0.835074134656406
0.156786904375142,0.014620489080650459,8.811131331024266e-08,4.449736095885416,0.3103404885265783,0.8306016148011152
0.15861000791438784,0.014551024578929636,7.093687923489141e-08,4.078643773764981,0.29014127865021644,0.8262376354117587
0.16043311145363368,0.01448291363246237,5.7783114111743106e-08,3.7064125618345884,0.2712568214767019,0.822007220955271
0.1622562149928795,0.014416768871584927,4.7608574662955035e-08,3.342543322728738,0.2536015408442044,0.8179402063851786
0.16407931853212535,0.014353322832073507,3.965001423012931e-08,2.9962609350899405,0.2370954306214639,0.8140726170801823
0.16590242207137118,0.014293449102178661,3.334697043525184e-08,2.6756349117055676,0.2216636921761238,0.8104494079477111
0.16772552561061702,0.014238195472989336,2.8293215942991414e-08,2.386502380561527,0.20723639543511346,0.8071292800462816
0.16954862914986285,0.014188793705276304,2.420495682240785e-08,2.131070226036725,0.1937481620032362,0.804189837110706
0.17137173268910869,0.014146553674564733,2.0888996307280248e-08,1.90706413556562,0.18113786890529898,0.8017244936350963
0.17319483622835452,0.014112535971894678,1.8198883846286998e-08,1.7092733218013552,0.16934837160940683,0.7998173883648342
0.17501793976760036,0.014087062902044064,1.599580709686467e-08,1.5331783726549084,0.1583262450756429,0.7984988870821529
0.1768410433068462,0.014069443068452288,1.4143139870877976e-08,1.376845892220309,0.14802154165718073,0.7977189532772675
0.17866414684609203,0.014058235223101897,1.2527105165197827e-08,1.2395876761209323,0.13838756475910466,0.7973690256214133
0.18048725038533786,0.014047847402648453,1.1057222899769979e-08,1.0428966098142276,0.12938065723098063,0.7973287910552631
0.1823103539245837,0.014038123663333978,8.233658326786064e-08,0.8651451392960554,0.12096000353285023,0.7973287658670676
0.18270947260756007,0.014046746023663709,8.101246307117616e-08,1.0219356405067592,0.11919093873339033,0.7973287658670671
0.18310859129053644,0.014047917740931221,7.974354494663235e-08,1.0225468622062095,0.11744774900595437,0.7974118202070184
0.18350770997351282,0.014049843714651733,7.852104509072956e-08,1.0288143790753823,0.11573005589158178,0.7975281288309732
0.1839068286564892,0.014052709349494819,7.736633248146118e-08,1.0381297491082857,0.11403748646668484,0.7977013566339125
0.18430594733946556,0.01405672476489731,7.630820188462662e-08,1.0428986436716838,0.1123696732625265,0.7979758516816149
0.18470506602244194,0.014062450644695098,7.536638798829228e-08,1.0401718161563671,0.11072625418554473,0.7984036037733048
0.1851041847054183,0.014070428834685638,7.454313233984247e-08,1.032921221489769,0.10910687243859979,0.7990128366709176
0.18550330338839469,0.014080889521613935,7.383086209391065e-08,1.0238028434709265,0.10751117644325078,0.7998102933662171
0.18590242207137106,0.014093880516525392,7.321965041897749e-08,1.01419688751616,0.1059388197632815,0.8007942228539121
0.18630154075434743,0.014109374693336186,7.269992092034151e-08,1.0047672076233156,0.10438946102945339,0.8019601001242177
0.1867006594373238,0.014127315323251918,7.226314938088063e-08,0.9958298039678377,0.1028627638653989,0.8033025510702354
0.18709977812030018,0.014147634366803271,7.190195651010913e-08,0.9875286571544563,0.10135839681460916,0.8048160290741998
0.18749889680327655,0.01417026028099638,7.16100257717119e-08,0.9799192007922833,0.09987603326849072,0.8064950720431506
0.18789801548625293,0.014195121547465016,7.138197931885759e-08,0.9730098295716056,0.09841535139547337,0.8083344037908978
0.1882971341692293,0.014222148319597918,7.121325408536545e-08,0.9667836080483886,0.09697603407115327,0.8103289720050678
0.18869625285220568,0.014251273184997556,7.10999907318534e-08,0.9612101281727725,0.09555776880945567,0.8124739584601366
0.18909537153518205,0.014282431488739025,7.103893815965739e-08,0.9562522081773639,0.09416024769480302,0.8147647765281473
0.18949449021815842,0.014315561429943956,7.102737290075901e-08,0.9518697664126707,0.09278316731527421,0.8171970628126662
0.1898936089011348,0.014350604038773383,7.106303165699146e-08,0.9480220887116335,0.09142622869673933,0.8197666661801004
0.19029272758411117,0.01438750309031449,7.114405509893304e-08,0.9446691537335703,0.09008913723795789,0.822469635824593
0.19069184626708754,0.014426204986230729,7.126894118126962e-08,0.9417723924405168,0.08877160264662465,0.8253022092046357
0.19109096495006392,0.014466658621507577,7.143650646895778e-08,0.9392951016102278,0.0874733388763507,0.8282608002826991
0.1914900836330403,0.014508815246194219,7.164585421329897e-08,0.9372026434975633,0.0861940640645656,0.8313419882842319
0.19188920231601667,0.014552628327828582,7.189634813899053e-08,0.9354625128375975,0.08493350047132707,0.8345425070756777
0.19228832099899304,0.014598053417782529,7.218759109421615e-08,0.9340443220211772,0.08369137441902563,0.8378592351967786
0.1926874396819694,0.014645048023308092,7.251940787636718e-08,0.9329197367254222,0.08246741623297078,0.841289186546698
0.1930865583649458,0.014693571486188233,7.289183167964718e-08,0.9320623827114367,0.08126136018284565,0.8448295017039348
0.19348567704792216,0.014743584868361807,7.33050937219416e-08,0.9314477371537484,0.08007294442501811,0.8484774398496866
0.19388479573089853,0.014795050844568565,7.375961570112243e-08,0.9310530131293778,0.07890191094569535,0.8522303712594524
0.1942839144138749,0.014847933601864307,7.425600480909437e-08,0.9308570428032596,0.07774800550490973,0.856085770325898
0.19468303309685128,0.014902198745742177,7.479505109852818e-08,0.9308401628104139,0.07661097758132403,0.8600412090761224
0.19508215177982766,0.01495781321253291,7.537772705502293e-08,0.9309841039849587,0.07549058031784382,0.8640943511476268
0.19548127046280403,0.015014745187726173,7.600518927861593e-08,0.931271886687778,0.07438657046802544,0.8682429461890232
0.1958803891457804,0.01507296402984479,7.667878222503104e-08,0.9316877223872125,0.07329870834326749,0.8724848246535334
0.19627950782875678,0.01513244019950683,7.740004400046094e-08,0.9322169217520159,0.07222675776077554,0.8768178929554777
0.19667862651173315,0.015193145193321118,7.817071424550522e-08,0.9328458092572226,0.07117048599228717,0.8812401289620789
0.19707774519470952,0.015255051482277439,7.899274418550029e-08,0.9335616441380092,0.07012966371354755,0.8857495777949834
0.1974768638776859,0.0153181324543109,7.986830896720882e-08,0.934352547424196,0.06910406495452415,0.8903443479178806
0.19787598256066227,0.015382362360739279,8.079982244703352e-08,0.9352074347287079,0.06809346705034972,0.8950226074884632
0.19827510124363865,0.015447716266291954,8.178995464500266e-08,0.9361159544330597,0.06709765059298302,0.8997825809547018
0.19867421992661502,0.015514170002468354,8.284165213331251e-08,0.9370684309023946,0.06611639938357684,0.9046225458770276
0.1990733386095914,0.015581700123982715,8.395816168998407e-08,0.9380558123649402,0.06514950038554305,0.9095408299594977
0.19947245729256777,0.015650283868069746,8.514305761928398e-08,0.9390696231015432,0.06419674367830436,0.9145358082743907
0.19987157597554414,0.015719899116442705,8.640027322345362e-08,0.9401019196068213,0.06325792241172307,0.9196059006659424
0.20027069465852051,0.015790524359711226,8.773413700801095e-08,0.941145250402567,0.06233283276119683,0.9247495693200813
0.2006698133414969,0.015862138664081017,8.9149414319143e-08,0.9421926192043785,0.06142127388341157,0.9299653164880952
0.20106893202447326,0.015934721640171255,9.065135525111066e-08,0.9432374511634535,0.06052304787274237,0.9352516823531198
0.20146805070744964,0.016008253413798183,9.224574982993074e-08,0.9442735619262124,0.059637959718292576,0.940607243029237
0.201867169390426,0.016082714598585283,9.393899168419577e-08,0.9452951292744363,0.05876581726156229,0.9460306086837845
0.20226628807340238,0.016158086270271085,9.573815166405875e-08,0.9462966671276336,0.05790643115473676,0.951520421774224
0.20266540675637876,0.01623434994259581,9.765106317708707e-08,0.9472730017074776,0.05705961481958601,0.9570753553915976
0.20306452543935513,0.01631148754465724,9.968642139028813e-08,0.948219249680831,0.056225184406966874,0.9626941117032334
0.2034636441223315,0.016389481399634594,1.0185389892114692e-07,0.9491307981135609,0.05540295875691886,0.9683754204879269
0.20386276280530788,0.016468314204787157,1.041642812331797e-07,0.9500032860817507,0.054592759359345336,0.9741180377573622
0.20426188148828425,0.016547969012641425,1.0662962569778623e-07,0.9508325878001649,0.05379441031527161,0.979920744458005
0.20466100017126063,0.016628429213287242,1.0926344922984652e-07,0.9516147971400464,0.05300773829867248,0.9857823452481591
0.205060118854237,0.016709678517709436,1.1208095061073967e-07,0.9523462134194188,0.05223257251886016,0.9917016673452647
0.20545923753721337,0.01679170094197463,1.1509927514356553e-07,0.9530233263031729,0.05146874468342629,0.9976775594389085
0.20585835622018975,0.016874480789881727,1.1833783075779078e-07,0.953642762276342,0.05071608896172921,1.0037088906447293
0.20625747490316612,0.016958002635457273,1.2181866808320614e-07,0.9542012710311907,0.04997444194892046,1.0097945492875848
0.2066565935861425,0.017042251318047062,1.2556694204999356e-07,0.9546958497902922,0.04924364263050261,1.015933442053544
0.20705571226911887,0.017127211928252478,1.2961147333562884e-07,0.9551236535599468,0.04852353234741244,1.0221244933273081
0.20745483095209524,0.017212869795842467,1.339854360864297e-07,0.9554819786815419,0.04781395476162295,1.028366644381187
0.20785394963507162,0.017299210478697362,1.387272068125846e-07,0.9557682550407051,0.047114755822258575,1.034658852604605
0.208253068318048,0.017386219752368367,1.438814202791585e-07,0.9559800389124757,0.04642578373221848,1.0410000907757695
0.20865218700102436,0.017473883600215796,1.4950029373203392e-07,0.9561150063910601,0.04574688891530334,1.0473893463730228
0.20905130568400074,0.017562188204092333,1.556453024932229e-07,0.9561709473571063,0.0450779239838425,1.053825620923614
