Time [s],Lmtc [m],STIM [ ],Fsee [N],Gamma [ ],Lcerel [ ]
0.0,0.021201951836677453,0.9999998016104917,0.8969082120883011,0.06804297602366868,1.3193664848194318
0.002780704995837882,0.021235549640737275,0.9999997521941334,2.2062591444056046,0.11386599717031042,1.3176272121217865
0.005561409991675764,0.021193766924806727,0.9999996394487368,3.3029439505360494,0.1574359616583853,1.311998152142001
0.008342114987513645,0.021120558856513778,0.9999994814443225,4.045876332145586,0.19886364603695297,1.3051523408106398
0.011122819983351528,0.021033666943141422,0.9999992915412682,4.542736158151473,0.23825438101466892,1.2978856750596577
0.01390352497918941,0.02094097576456627,0.9999990816884434,4.903512917372261,0.27570831899262077,1.290483519526672
0.016684229975027293,0.020845964437177036,0.9999988617693079,5.189482352702037,0.3113206886051083,1.283062897490106
0.019464934970865176,0.02075023398489699,0.9999986394653306,5.431680755288684,0.34518203671285774,1.2756762432376771
0.02224563996670306,0.02065455763151269,0.9999984204607414,5.646122190642932,0.37737845849105006,1.268347939261216
0.025026344962540942,0.020559320541406082,0.9999982087762082,5.841483658518746,0.40799181621430874,1.261089009110394
0.027807049958378825,0.02046471447643233,0.9999980071158873,6.022734198013642,0.4370999473007392,1.2539036896405524
0.030587754954216707,0.02037082970594048,0.999997817176996,6.192878589713233,0.4647768621437958,1.2467926236465756
0.03336845995005459,0.020277701095665724,0.9999976399057408,6.353829520675117,0.4910929322322547,1.239754512039376
0.036149164945892466,0.02018533245531607,0.999997475699839,6.506863935254854,0.5161150690331698,1.2327870108260957
0.038929869941730345,0.020093709971431502,0.9999973245644339,6.652872561154266,0.5399068940893611,1.2258872355765378
0.041710574937568225,0.02000280988298847,0.9999971862299321,6.792502068376519,0.5625289007611115,1.219052052057206
0.044491279933406104,0.019912602988215407,0.9999970602398769,6.926239174732074,0.5840386080210458,1.2122782458917083
0.04727198492924398,0.019823057343064655,0.9999969460157843,7.054462154684213,0.6044907066914466,1.205562621697151
0.05005268992508186,0.01973413989583611,0.9999968429045196,7.177473400926111,0.6239371984944735,1.1989020601411913
0.05283339492091974,0.019645817479962708,0.999996750212576,7.295520618332657,0.6424275282678086,1.192293549462146
0.05561409991675762,0.01955805741158615,0.9999966672305878,7.408810997002521,0.6600087096811226,1.18573420132375
0.0583948049125955,0.01947082783990697,0.9999965932506023,7.517520931739952,0.6767254447724473,1.179221257021516
0.06117550990843338,0.019384097941136023,0.999996527578,7.621802845974089,0.6926202376079589,1.1727520877710682
0.06395621490427127,0.019297838012875303,0.9999964695394744,7.721790089442163,0.7077335023538509,1.1663241914215658
0.06673691990010915,0.01921201950505773,0.9999964184881243,7.817600526755866,0.72210366603486,1.1599351870792651
0.06951762489594702,0.019126615010715872,0.9999963738064344,7.909339218214639,0.735767266240546,1.1535828085868947
0.0722983298917849,0.019041598231716285,0.9999963349077255,7.997100459146358,0.7487590440276359,1.1472648974608237
0.07507903488762278,0.018956943929371115,0.9999963012364991,8.08096935775106,0.7611120322545634,1.1409793956666168
0.07785973988346066,0.018872627866437976,0.9999962722679917,8.161023075231013,0.7728576395727332,1.134724338469828
0.08064044487929854,0.018788626744779477,0.9999962475071739,8.237331814753658,0.784025730288037,1.128497847505015
0.08342114987513642,0.018704918141466458,0.9999962264873585,8.30995962070489,0.7946447002956343,1.1222981241445684
0.0862018548709743,0.018621480445113248,0.9999962087685472,8.378965032520464,0.8047415492810611,1.1161234432088276
0.08898255986681218,0.018538292793563456,0.9999961939355979,8.444401625458303,0.8143419493712262,1.1099721470329018
0.09176326486265006,0.01845533501359347,0.9999961815962795,8.506318462275008,0.8234703104098468,1.1038426398889263
0.09454396985848794,0.01837258488456429,0.9999961713792531,8.564613606382688,0.8321498420232823,1.097733382751996
0.09732467485432582,0.018290018918157527,0.9999961629320085,8.619078040335875,0.8404026126345817,1.0916428883916924
0.1001053798501637,0.01820761871596155,0.9999961559187678,8.669748431317943,0.8482496055757887,1.0855697167675373
0.10288608484600158,0.0181253664143675,0.9999961500183651,8.716662131954019,0.8557107724411792,1.0795124707049426
0.10566678984183946,0.018043244557842668,0.9999961449220958,8.759853041136864,0.8628050838170923,1.0734697918276173
0.10844749483767734,0.017961236054021133,0.9999961403315295,8.799351794487613,0.8695505775173387,1.0674403567225585
0.11122819983351522,0.017879324130671448,0.9999961359562675,8.835185929578081,0.8759644044468347,1.061422873314341
0.1140089048293531,0.017797492294354043,0.9999961315116247,8.867380029237308,0.8820628722100712,1.0554160774262635
0.11678960982519097,0.01771572429057315,0.9999961267162085,8.895955845632493,0.8878614865753081,1.0494187295068909
0.11957031482102885,0.0176340040652239,0.9999961212893556,8.92093240731268,0.8933749908999058,1.0434296115014905
0.12235101981686673,0.01755231572713452,0.9999961149483864,8.942326111000458,0.8986174036170452,1.0374475238488474
0.12513172481270463,0.01747064351150332,0.9999961074056214,8.960150799589922,0.903602053879143,1.0314712825847843
0.1279124298085425,0.017388971744030857,0.999996098365093,8.97441782754013,0.9083416154485825,1.0254997165345026
0.13069313480438038,0.01730728480554819,0.999996087518871,8.98513611462936,0.9128481389219218,1.0195316645765047
0.13347383980021826,0.01722556709694146,0.9999960745429012,8.992312188846375,0.9171330823695045,1.013565972961367
0.13625454479605614,0.017143803004171777,0.9999960590922278,8.995950219032634,0.9212073404683546,1.0076014926689996
0.13903524979189402,0.017061977188238837,0.9999960407958403,8.99607030479924,0.9250812722024164,1.0016370767882592
0.1418159547877319,0.016980074747329776,0.9999960192576266,8.992701658379874,0.9287647272005563,0.9956716011425802
0.14459665978356978,0.01689807740847747,0.9999959940555982,8.985489627399705,0.9322670707796112,0.9897041966259469
0.14737736477940766,0.016815974483857445,0.9999959647247997,8.97440592625495,0.9355972077560627,0.9837341269455109
0.15015806977524554,0.01673375558418955,0.9999959307443286,8.959444764518208,0.9387636050860894,0.977760651680339
0.15293877477108342,0.016651410162402284,0.9999958915249321,8.940598624339923,0.9417743133917951,0.9717830244903624
0.1557194797669213,0.01656892749710871,0.9999958463937306,8.917858246917268,0.9446369874284191,0.9658004920017907
0.15850018476275918,0.016486296675262448,0.9999957945751886,8.89121261431787,0.9473589055444454,0.9598122926582096
0.16128088975859706,0.016403506573913502,0.9999957351671603,8.86064892659552,0.9499469881839515,0.9538176555325647
0.16406159475443494,0.016320545840974483,0.9999956671104041,8.826152574097103,0.952407815478048,0.9478157990948433
0.16684229975027282,0.01623740287489763,0.9999955891493367,8.787707104822253,0.9547476439698664,0.9418059299298275
0.1696230047461107,0.016154065803151707,0.99999549978089,8.745294186658858,0.9569724225152796,0.9357872413988076
0.17240370974194857,0.016070522459375434,0.9999953971869877,8.698893564277741,0.9590878073992862,0.9297589122386001
0.17518441473778645,0.015986760359070113,0.9999952791441231,8.648483010428064,0.9610991767058248,0.923720105090611
0.17796511973362433,0.01590276667367828,0.9999951429003784,8.594038271330785,0.9630116439766004,0.9176699649519936
0.1807458247294622,0.015818528202877345,0.9999949850052834,8.535533005819303,0.9648300711922767,0.9116076175401783
0.1835265297253001,0.015734031344897044,0.9999948010699147,8.47293871782469,0.9665590811070354,0.9055321675611722
0.18630723472113797,0.01564926206464601,0.9999945854213588,8.406224681745332,0.9682030689648697,0.8994426968710332
0.18908793971697585,0.015564205859406738,0.9999943305929122,8.335357860177856,0.9697662136228098,0.8933382625188009
0.19186864471281373,0.015478847721827487,0.999994026551008,8.260302813415267,0.9712524881021735,0.8872178946578816
0.1946493497086516,0.015393172099904498,0.9999936594852384,8.181021600038894,0.9726656695830134,0.8810805943114124
0.1974300547044895,0.015307162853607639,0.9999932098433694,8.09747366784098,0.9740093488476605,0.8749253309754825
0.20021075970032737,0.015220803207755214,0.9999926489978269,8.00961573421149,0.9752869391633238,0.8687510400421654
0.20299146469616525,0.015134075700688877,0.9999919332855588,7.917401655003536,0.9765016845640473,0.8625566200221312
0.20577216969200313,0.015046962128235529,0.9999909926415405,7.820782280749892,0.977656667432402,0.8563409295441204
0.208552874687841,0.014959443482367418,0.9999897070853921,7.719705298927794,0.9787548151495288,0.8501027841056585
0.21133357968367888,0.014871499883882774,0.9999878526346601,7.614115060736237,0.9797989052620983,0.8438409525461202
0.21411428467951676,0.014783110508323118,0.9999849574345612,7.5039523904998084,0.9807915677358807,0.8375541532095067
0.21689498967535464,0.01469425350421638,0.9999798277166392,7.389154375204956,0.9817352800246716,0.8312410497601976
0.21967569467119252,0.014604905902596395,0.9999683120247131,7.26965413096753,0.9826323390739625,0.8249002466111586
0.2224563996670304,0.014515043517185182,0.9999192339825952,7.145380568756817,0.9834847247723423,0.8185302839252938
0.22523710466286828,0.01442475485275199,5.019286885747985e-05,7.021917961751661,0.9842927867762982,0.8121296322279122
0.22801780965870616,0.014333231797187491,1.1048017489075194e-05,6.855048165506732,0.8882679746823856,0.8057049940464147
0.23079851465454404,0.014241100786859723,4.879776912348153e-06,6.669852136715052,0.801607824712671,0.7992666469017803
0.23357921965038192,0.014148316666146694,2.5928423688730245e-06,6.4616778442604685,0.7234019083925146,0.7928197032533939
0.2363599246462198,0.014054831927558804,1.5036798914837931e-06,6.224786863039986,0.6528257828978867,0.7863715502860346
0.23914062964205768,0.013960604442999833,9.19343270819495e-07,5.952542827098871,0.5891351788154289,0.7799325775528112
0.24192133463789556,0.013865615210523907,5.837687208909228e-07,5.638057654651944,0.5316583723796364,0.7735170920840537
0.24470203963373344,0.013769903033331891,3.824674753056291e-07,5.27554458322041,0.47978915031561137,0.7671444571272356
0.24748274462957132,0.013673623478949347,2.5793666845823797e-07,4.862505547817799,0.43298043224294547,0.76084050049793
0.2502634496254092,0.013577135136941166,1.7901867205222757e-07,4.402465288696633,0.3907385070451429,0.754639256736565
0.2530441546212471,0.0134811044678004,1.2794005123359974e-07,3.907264056908467,0.3526178285675105,0.7485851349841751
0.25582485961708495,0.01338660563650555,9.419134572373896e-08,3.3973979778518277,0.31821631779854137,0.7427356584256385
0.25860556461292283,0.01329519320427345,7.139220969591098e-08,2.8994551912795345,0.2871711227880833,0.7371652046835409
0.2613862696087607,0.01320896941662978,5.558948413194802e-08,2.4414065065483457,0.2591547919353158,0.7319718143359922
0.2641669746045986,0.013130709079294157,4.432022111322406e-08,2.0463315297698172,0.2338718204566846,0.7272944632588864
0.26694767960043647,0.013063940113229002,3.6110206936364744e-08,1.721949348648209,0.21105553369981897,0.7233478897971415
0.26972838459627435,0.01301241918744463,3.008814420689076e-08,1.4540709218215815,0.1904652744821719,0.7204202492195174
0.27250908959211223,0.01297813986755602,2.557732800443088e-08,1.2262742521660799,0.17188386480406342,0.718687831009921
0.2752897945879501,0.01295907553190295,2.197724058997039e-08,1.036619567666503,0.1551153151651057,0.7179924712452357
0.278070499583788,0.012944641241434194,1.4135510034252422e-07,0.7828287309000155,0.13998275735533602,0.7179780371960879
0.27862312792128346,0.012948268827507332,1.3832949948220342e-07,0.8441204353841563,0.13715602094322385,0.7179780371960872
0.27917575625877894,0.0129484465408351,1.354077669376539e-07,0.8343004959618789,0.1343863701984322,0.7180326922375145
0.2797283845962744,0.01294935969636063,1.3257912871610495e-07,0.8309030574477583,0.1316726522823171,0.7181137366079754
0.2802810129337699,0.012951321067217171,1.298711434866378e-07,0.8353907967967926,0.12901373763750643,0.7182375734729187
0.28083364127126537,0.012954641037195352,1.273481865023511e-07,0.8439095704316186,0.1264085195185105,0.7184433986300585
0.28138626960876084,0.012959814396635093,1.2509302355855073e-07,0.8446590426527746,0.12385591353178124,0.7188173101740384
0.2819388979462563,0.012968062848609031,1.2314256615772057e-07,0.8373486444695089,0.12135485718468775,0.7194495487782702
0.2824915262837518,0.012980080780665506,1.214783662870611e-07,0.8271078483460128,0.11890430944230305,0.7203692032369924
0.28304415462124727,0.012995986658325128,1.2006562574198043e-07,0.8164913698480853,0.11650325029294946,0.7215741373627076
0.28359678295874274,0.013015701897392661,1.1887122993508338e-07,0.8064836342533247,0.11415068032330523,0.7230543943949319
0.2841494112962382,0.0130390900932931,1.178670757688041e-07,0.7974401990457867,0.11184562030245655,0.7247984390354102
0.2847020396337337,0.01306600053128595,1.1702997018165112e-07,0.7894592968669331,0.10958711077441642,0.7267947885594305
0.28525466797122917,0.013096282996657639,1.1634090227687543e-07,0.782528770117063,0.10737421165887066,0.7290324800168848
0.28580729630872465,0.01312979311998635,1.1578429860650891e-07,0.776588785720482,0.10520600185997211,0.7315011953574339
0.2863599246462201,0.013166394218621522,1.1534738750818588e-07,0.7715604606418803,0.10308157888302032,0.7341912724753166
0.2869125529837156,0.013205957724748333,1.1501968333063043e-07,0.7673595184651534,0.10100005845886906,0.7370936758161911
0.28746518132121107,0.013248363016153824,1.147925746058551e-07,0.763902912989227,0.0989605741759092,0.7401999532803493
0.28801780965870655,0.013293496996239395,1.1465899649944695e-07,0.761111972979159,0.0969622771194746,0.7435021899275372
0.288570437996202,0.013341253579692233,1.1461317006626884e-07,0.7589137640406665,0.09500433551852416,0.746992962771996
0.2891230663336975,0.013391533157124644,1.1465039412891906e-07,0.7572415193952332,0.09308593439945326,0.7506652983839674
0.289675694671193,0.013444242073390376,1.147668786365898e-07,0.7560345847870482,0.09120627524689287,0.754512633890319
0.29022832300868845,0.013499292135503936,1.1495961085365041e-07,0.755238117204877,0.08936457567135508,0.7585287814614954
0.2907809513461839,0.013556600156647973,1.15226247681792e-07,0.7548026689229591,0.08756006908358768,0.7627078961454306
0.2913335796836794,0.013616087537927883,1.155650289270489e-07,0.7546837295530353,0.0857920043755032,0.7670444468134977
0.2918862080211749,0.013677679887074717,1.1597470747977255e-07,0.7548412660078121,0.08405964560754974,0.7715331899512032
0.29243883635867035,0.013741306672088827,1.1645449326387547e-07,0.7552392816544545,0.082362271702394,0.7761691460245425
0.2929914646961658,0.013806900907281339,1.170040084963375e-07,0.7558454052465351,0.08069917614478891,0.7809475781656958
0.2935440930336613,0.013874398868999094,1.1762325232873518e-07,0.7566305140710005,0.079069666687502,0.785863972940777
0.2940967213711568,0.013943739838344108,1.1831257335692439e-07,0.7575683922374329,0.07747306506318118,0.7909140229835318
0.29464934970865225,0.014014865868325932,1.1907264881114419e-07,0.7586354230847602,0.07590870670203949,0.7960936113000587
0.29520197804614773,0.014087721573062225,1.1990446949792516e-07,0.759810313652629,0.07437594045524022,0.8013987970697505
0.2957546063836432,0.01416225393683859,1.2080932977329225e-07,0.7610738486847684,0.07287412832386844,0.8068258027862306
0.2963072347211387,0.014238412141037105,1.2178882199603644e-07,0.7624086714742803,0.07140264519337511,0.8123710025989748
0.29685986305863415,0.014316147407133878,1.2284483504963684e-07,0.763799088889408,0.06996087857338448,0.8180309117314937
0.29741249139612963,0.014395412854145737,1.239795566390041e-07,0.7652308980492827,0.06854822834275595,0.8238021768655767
0.2979651197336251,0.014476163369071024,1.2519547916927704e-07,0.7666912323021954,0.0671641064997942,0.8296815673931782
0.2985177480711206,0.014558355489020604,1.2649540910304314e-07,0.7681684243634345,0.06580793691750393,0.8356659674483103
0.29907037640861606,0.014641947293871352,1.2788247977329057e-07,0.7696518846775443,0.06447915510378789,0.8417523686408402
0.29962300474611153,0.014726898308397131,1.2936016770533816e-07,0.7711319932706421,0.06317720796648729,0.8479378634225554
0.300175633083607,0.014813169412942376,1.3093231257469882e-07,0.7726000035465821,0.06190155358316794,0.8542196390233613
0.3007282614211025,0.014900722761801644,1.3260314100187363e-07,0.7740479566536065,0.06065166097555584,0.8605949719021202
0.30128088975859796,0.014989521708556431,1.343772944618932e-07,0.7754686052047776,0.05942700988852851,0.8670612226625274
0.30183351809609343,0.015079530737698939,1.3625986166850424e-07,0.7768553452762403,0.05822709057357013,0.8736158313896553
0.3023861464335889,0.01517071540194225,1.3825641588285033e-07,0.7782021557329024,0.057051403576600414,0.8802563133674315
0.3029387747710844,0.015263042264678605,1.4037305769720233e-07,0.7795035440426438,0.055899459530089075,0.8869802551414236
0.30349140310857986,0.015356478847102943,1.4261646395902984e-07,0.7807544978388118,0.05477077894936934,0.8937853108949809
0.30404403144607534,0.015450993579568294,1.4499394363329992e-07,0.7819504415780015,0.05366489203306596,0.9006691991100266
0.3045966597835708,0.015546555756783566,1.4751350155591998e-07,0.7830871977168629,0.05258133846755456,0.9076296994866935
0.3051492881210663,0.015643135496503584,1.5018391121425207e-07,0.7841609518993852,0.05151966723537128,0.9146646500985788
0.30570191645856176,0.015740703701396186,1.5301479790841798e-07,0.7851682217056581,0.050479436427493155,0.9217719447626903
0.30625454479605724,0.015839232023802625,1.5601673390813846e-07,0.7861058285654912,0.0494602130594108,0.9289495306052206
0.3068071731335527,0.015938692833135207,1.5920134753467685e-07,0.7869708724863631,0.04846157289091802,0.9361954058061093
0.3073598014710482,0.016039059185681208,1.625814484793736e-07,0.7877607092857166,0.04748310024954223,0.9435076175069972
0.30791242980854366,0.016140304796604294,1.6617117213618593e-07,0.7884729300533292,0.04652438785754377,0.9508842598686434
0.30846505814603914,0.01624240401395491,1.699861462971367e-07,0.7891053426008927,0.04558503666241168,0.9583234722651991
0.3090176864835346,0.01634533179451849,1.7404368426435897e-07,0.7896559546835995,0.04466465567078591,0.9658234376038872
0.3095703148210301,0.016449063681346993,1.78363009306375e-07,0.790122958802958,0.04376286178573737,0.9733823807597255
0.31012294315852557,0.016553575782833115,1.8296551647605982e-07,0.7905047184215822,0.04287927964733884,0.9809985671158523
0.31067557149602104,0.016658844753199793,1.878750791746507e-07,0.7907997554396308,0.04201354147646048,0.9886703012008835
0.3112281998335165,0.016764847774219358,1.9311840954596183e-07,0.7910067376395331,0.04116528692172636,0.9963959254154887
0.311780828171012,0.016871562535531712,1.9872548265714002e-07,0.7911244275786709,0.04033416290956883,1.004173818824962
0.31233345650850747,0.016978967212545604,2.0473003854747732e-07,0.7911516533649389,0.0395198234973196,1.0120023956794506
0.31288608484600294,0.017087040461545706,2.1117018551913846e-07,0.7910874589766178,0.038721929729277856,1.0198801044027779
0.3134387131834984,0.01719576140531807,2.1808912189070465e-07,0.7909310112335348,0.03794014949569712,1.0278054269540873
0.3139913415209939,0.01730510961939765,2.2553600439601813e-07,0.7906815799938096,0.03717415739463455,1.0357768779141139
0.31454396985848937,0.01741506511974549,2.3356700075657966e-07,0.790338531477009,0.036423634596607635,1.0437930036179515
0.31509659819598484,0.017525608351154794,2.422465736192852e-07,0.7899013221103407,0.03568826871200561,1.0518523813383827
0.3156492265334803,0.017636720176329643,2.516490573728998e-07,0.7893694928453596,0.034967753661203985,1.0599536185159446
