Time [s],Lmtc [m],STIM [ ],Fsee [N],Gamma [ ],Lcerel [ ]
0.0,0.020445057579834607,0.9999995996646647,3.878329593283796,0.19046540273440518,1.2562427198423132
0.0016480504470682304,0.020388665008712014,0.9999995135299578,4.264862933960856,0.21429783555218845,1.2513868561902344
0.0032961008941364608,0.020328616286303603,0.999999418504828,4.572878219809013,0.23742864648797574,1.2464398106784182
0.004944151341204691,0.0202662784110588,0.9999993165494305,4.823895002482388,0.2598784908081548,1.2414454695765904
0.0065922017882729216,0.0202025214614364,0.9999992094346248,5.033982696980554,0.28166741575225623,1.2364300931245662
0.008240252235341153,0.020137903809300542,0.9999990987154286,5.214447415303658,0.30281487842750043,1.2314099804893108
0.009888302682409384,0.020072788662548628,0.9999989857270933,5.373093908008411,0.3233397631757536,1.226395507741504
0.011536353129477615,0.020007415738201605,0.9999988715949816,5.515308509445946,0.34326039842908973,1.2213933766802787
0.013184403576545847,0.019941945307633168,0.9999987572519422,5.644841738471401,0.36259457306942244,1.2164079289647196
0.014832454023614078,0.0198764855595104,0.999998643459016,5.764340173078224,0.38135955230702395,1.2114419463599173
0.01648050447068231,0.019811109881907974,0.9999985308268701,5.875700312046916,0.39957209309219666,1.2064971555120976
0.01812855491775054,0.019745867985025735,0.9999984198364312,5.980303231848046,0.41724845907386066,1.2015745560665156
0.01977660536481877,0.019680793199522564,0.9999983108578985,6.079171062433333,0.4344044351183711,1.19667463950553
0.021424655811887003,0.01961590735656543,0.9999982041677665,6.173072379253073,0.45105534140146786,1.1917975383457275
0.023072706258955234,0.019551224109630148,0.9999980999637647,6.262594058412537,0.46721604708586223,1.1869431297840756
0.024720756706023465,0.019486751233399244,0.9999979983777785,6.348190913197277,0.4829009835966009,1.1821111088608973
0.026368807153091697,0.019422492239089404,0.9999978994869038,6.43022044291953,0.49812415750598676,1.1773010408083204
0.028016857600159928,0.019358447525198996,0.9999978033228234,6.508967482440452,0.5128991630394975,1.1725123989313813
0.02966490804722816,0.01929461520748294,0.9999977098797048,6.584661913306365,0.5272391942138097,1.1677445922742344
0.03131295849429639,0.019230991724172773,0.9999976191208126,6.657491547630096,0.5411570566177158,1.16299698597307
0.03296100894136462,0.019167572281565355,0.9999975309840156,6.72761161184758,0.5546651788464102,1.1582689163083315
0.034609059388432846,0.019104351184806842,0.9999974453863452,6.795151806847546,0.567775623599314,1.1535597018730317
0.036257109835501074,0.019041322085156527,0.9999973622277508,6.860221620633475,0.5805000984513184,1.148868651867951
0.0379051602825693,0.018978478165847072,0.9999972813941678,6.922914367159173,0.5928499663070378,1.144195072253553
0.03955321072963753,0.01891581228236522,0.9999972027600055,6.983310286838596,0.6048362555473799,1.1395382702914014
0.04120126117670576,0.01885331706860181,0.9999971261901416,7.041478948937569,0.616469669877482,1.1348975578678435
0.042849311623773985,0.018790985017240427,0.9999970515414953,7.097481129598919,0.6277605978847804,1.1302722538920935
0.04449736207084221,0.018728808540561644,0.9999969786642423,7.151370292418494,0.6387191223157456,1.1256616859877375
0.04614541251791044,0.018666780016262423,0.999996907402719,7.203193765149508,0.6493550290795425,1.121065191643051
0.04779346296497867,0.01860489182174373,0.9999968375960593,7.252993682148237,0.6596778159866574,1.1164821189458276
0.049441513412046896,0.018543136359477908,0.9999967690785965,7.300807744789155,0.6696967012302807,1.1119118269987667
0.051089563859115124,0.018481506075444815,0.9999967016800545,7.346669839353662,0.6794206316180079,1.107353686089187
0.05273761430618335,0.018419993470146893,0.9999966352255496,7.3906104399029795,0.6888582905612144,1.1028070776699614
0.05438566475325158,0.01835858880529742,0.9999965695354162,7.432539428988922,0.6980181058292192,1.098271394195664
0.05603371520031981,0.018297282716059092,0.9999965044248658,7.472378374844321,0.7069082570751666,1.0937460388480844
0.057681765647388035,0.018236067974456323,0.9999964397034836,7.510151580180396,0.7155366831403392,1.0892304251776213
0.05932981609445626,0.018174937420700813,0.9999963751745622,7.5458812112726905,0.7239110891434162,1.0847239766811796
0.06097786654152449,0.018113883962662045,0.9999963106342682,7.579587503633559,0.7320389533610082,1.0802261263325863
0.06262591698859273,0.018052900574014916,0.999996245870632,7.6112889363531036,0.7399275339056086,1.0757363160779618
0.06427396743566095,0.017991980291334777,0.9999961806623467,7.641002380549755,0.747583875206915,1.0712539963056336
0.06592201788272918,0.017931116210352992,0.9999961147773568,7.66874322629701,0.7550148143023102,1.0667786252979774
0.06757006832979741,0.017870301481540337,0.9999960479712093,7.69452549154876,0.7622269869421082,1.0623096686707825
0.06921811877686564,0.017809529305149962,0.9999959799851366,7.718361915918905,0.7692268335150197,1.05784659880436
0.07086616922393386,0.01774879292582259,0.999995910543827,7.74026404164145,0.7760206047991133,1.0533888942694825
0.07251421967100209,0.017688085626833834,0.9999958393528333,7.760242283614371,0.7826143675434073,1.0489360392503524
0.07416227011807032,0.017627400724044968,0.999995766095554,7.778305990091166,0.7890140098850643,1.0444875229660842
0.07581032056513855,0.017566731559603452,0.9999956904297066,7.794463495309913,0.7952252466070151,1.0400428390915943
0.07745837101220678,0.01750607149542735,0.9999956119831972,7.808722165127627,0.8012536242406962,1.035601485178334
0.079106421459275,0.017445413906497884,0.9999955303492599,7.82108843654639,0.8071045260184442,1.0311629620749094
0.08075447190634323,0.017384752173975844,0.9999954450807137,7.831567851869451,0.8127831766799515,1.0267267733473069
0.08240252235341146,0.0173240796781509,0.9999953556831443,7.840165088103053,0.8182946471370456,1.0222924246981862
0.08405057280047969,0.017263389791226977,0.9999952616067654,7.84688398211852,0.8236438590009473,1.0178594233844762
0.08569862324754791,0.01720267586994195,0.9999951622366506,7.851727552004837,0.8288355889760001,1.0134272776323114
0.08734667369461614,0.017141931248015288,0.9999950568809387,7.854698014971249,0.8338744731237674,1.0089954960481664
0.08899472414168437,0.017081149228414017,0.9999949447564999,7.855796802099778,0.8387650110012459,1.0045635870249108
0.0906427745887526,0.01702032369532736,0.999994824972274,7.8550571229544595,0.8435115696768317,1.0001310581413396
0.09229082503582083,0.016959447130993226,0.9999946965158629,7.85242005199758,0.8481183876275644,0.9956974435951141
0.09393887548288905,0.01689851121434675,0.9999945582300498,7.8476987963345435,0.852589578521246,0.99126239758964
0.09558692592995728,0.016837511569882408,0.9999944087738468,7.840891845977942,0.8569291348865197,0.9868256059063731
0.09723497637702551,0.01677644376995024,0.9999942465809117,7.8319972944882545,0.8611409316737602,0.9823867522422546
0.09888302682409374,0.01671530332777153,0.9999940698079394,7.821012655733476,0.8652287297099069,0.9779455179678278
0.10053107727116196,0.016654085693797317,0.9999938762683415,7.807934865196109,0.8691961790500676,0.9735015818768936
0.10217912771823019,0.016592786251864215,0.9999936633460694,7.792760279954272,0.8730468222285016,0.9690546199273573
0.10382717816529842,0.0165314003151407,0.9999934278822699,7.775484677392734,0.8767840974113552,0.9646043049728215
0.10547522861236665,0.01646992312185595,0.999993166024216,7.756103252687191,0.8804113414532472,0.9601503064844336
0.10712327905943488,0.016408349830801316,0.9999928730209985,7.73461061509348,0.8839317928594217,0.955692290262411
0.1087713295065031,0.01634667551659328,0.9999925429427048,7.711000783063498,0.8873485946546794,0.9512299181366165
0.11041937995357133,0.0162848951646848,0.9999921682874211,7.6852671781997195,0.890664797159585,0.9467628476554664
0.11206743040063956,0.01622300366611037,0.999991739420038,7.6574026180516075,0.8938833606733708,0.9422907317623939
0.11371548084770779,0.016160995811948478,0.9999912437524093,7.6273993077485605,0.8970071580613364,0.9378132184590188
0.11536353129477601,0.01609886628748297,0.9999906645141994,7.595248830455601,0.9000389772419394,0.933329950454076
0.11701158174184424,0.01603660966604309,0.9999899788543555,7.560942136629554,0.9029815235644856,0.9288405647970908
0.11865963218891247,0.015974220402499566,0.9999891548054417,7.524469532044091,0.9058374220609242,0.9243446924956876
0.1203076826359807,0.01591169282639189,0.999988146228073,7.485820664541271,0.9086092195419857,0.9198419581153212
0.12195573308304893,0.015849021134659254,0.9999868839718176,7.444984509453502,0.9112993864827761,0.9153319793601304
0.12360378353011715,0.015786199383944568,0.9999852594782797,7.401949353619543,0.9139103185926416,0.9108143666334841
0.1252518339771854,0.01572322148243768,0.999983092034024,7.356702777883876,0.9164443378561048,0.9062887225766937
0.12689988442425362,0.015660081181219615,0.999980056861337,7.309231637901463,0.918903692579098,0.9017546415842458
0.12854793487132185,0.015596772065063616,0.9999755058054578,7.2595220429166165,0.9212905553168745,0.8972117092938091
0.13019598531839008,0.015533287542638914,0.9999679314336223,7.207559331793161,0.92360701558406,0.8926595020492522
0.1318440357654583,0.01546962083604375,0.999952837090012,7.153328044529944,0.925855057002721,0.8880975863351868
0.13349208621252653,0.015405764969620272,0.999908042553046,7.096811887776477,0.9280364724188994,0.8835255181832984
0.13514013665959476,0.015341733303224836,0.5328300941675533,7.039014952204258,0.9301523489255777,0.8789428425648897
0.136788187106663,0.015277361692605422,3.798026342682775e-05,6.971513319750874,0.906699514131548,0.8743500301412894
0.13843623755373122,0.015212534991261815,1.6276851210958142e-05,6.887535414912712,0.8531817501180529,0.8697489364912159
0.14008428800079945,0.015147455530618574,9.20253771371481e-06,6.796329595664543,0.8028217478800347,0.8651409611670042
0.14173233844786767,0.015082103748473597,5.828017922646749e-06,6.6968806063743935,0.7554339747907549,0.8605264376999214
0.1433803888949359,0.015016457485594515,3.926016604559418e-06,6.588006618822141,0.7108432047027131,0.8559058396682533
0.14502843934200413,0.01495049175047638,2.7494127653343975e-06,6.46835084981653,0.6688844232351855,0.8512798040840671
0.14667648978907236,0.014884178606318804,1.9776749334808354e-06,6.336383252994349,0.6294023123643262,0.8466491571539194
0.14832454023614058,0.014817487285339812,1.4510207719504826e-06,6.190418536677809,0.5922507032477309,0.8420149422519541
0.1499725906832088,0.014750384674350407,1.0813109929053067e-06,6.028658343118322,0.5572920456557826,0.837378449790653
0.15162064113027704,0.014682836359124488,8.16270308634276e-07,5.849266664421753,0.5243969034616693,0.8327412485304523
0.15326869157734527,0.01461480845222891,6.231772115929873e-07,5.650487599422814,0.4934434777996441,0.8281052177512135
0.1549167420244135,0.01454627044226122,4.806901130311264e-07,5.4308122068908435,0.46431715740751317,0.8234725796573791
0.15656479247148172,0.014477199266625367,3.7443798119606737e-07,5.1891951135910395,0.436910095028998,0.8188459314636587
0.15821284291854995,0.014407584695559524,2.9449739462512145e-07,4.925310608317345,0.41112080855991595,0.814228276885893
0.15986089336561818,0.01433743589962245,2.3387784984227292e-07,4.639822333568811,0.38685380558895305,0.8096230573429293
0.1615089438126864,0.014266788761708837,1.8757545818308935e-07,4.334622960473694,0.3640192300116106,0.8050341842273703
0.16315699425975463,0.014195713150370354,1.5196172755531677e-07,4.012986336978121,0.3425325294479407,0.8004660755527081
0.16480504470682286,0.014217881575941779,2.593557968631267e-07,7.810565262583372,0.3223141422558475,0.7959237045241315
0.16569245648601344,0.01421158487219145,2.5067439308631537e-07,7.484326300042304,0.31192623890160176,0.7959237045240721
0.16657986826520402,0.01420504366577258,2.4227279692494006e-07,7.152788955822451,0.301873138978654,0.7959237052292578
0.1674672800443946,0.014198276133748317,2.3414198499221471e-07,6.817685139438358,0.292144051730315,0.7959237059731487
0.16835469182358517,0.014191303216361344,2.262732299492045e-07,6.480820182909323,0.28272853418734023,0.795923706760545
0.16924210360277575,0.014184148374429023,2.1865808574296493e-07,6.144037760327266,0.27361647995869703,0.7959237075969149
0.17012951538196633,0.014176837217299546,2.1128837854037062e-07,5.809179738444924,0.2647981083836065,0.7959237084885004
0.1710169271611569,0.014169397069123782,2.0415619795410224e-07,5.47804611079087,0.25626395403321656,0.795923709442453
0.17190433894034748,0.01416185649058288,1.9725388855141005e-07,5.152356852882002,0.24800485655063742,0.7959237104669948
0.17279175071953806,0.014154244775367999,1.905740416365846e-07,4.833717386340021,0.24001195081843332,0.795923711571617
0.17367916249872864,0.014146591441491213,1.84109487298355e-07,4.523589064378559,0.2322766574430183,0.7959237127673269
0.17456657427791922,0.0141389257369008,1.7785328671372855e-07,4.223265721785826,0.22479067354574028,0.7959237140669544
0.1754539860571098,0.01413127617700943,1.7179872470005655e-07,3.933856909661168,0.2175459638507706,0.7959237154855421
0.17634139783630037,0.014123670128869543,1.659393025073939e-07,3.656278002042206,0.2105347520602307,0.7959237170408422
0.17722880961549095,0.0141161334531736,1.6026873084348276e-07,3.3912469582470237,0.20374951250730045,0.7959237187539653
0.17811622139468153,0.0141086902113755,1.5478092312397103e-07,3.139287183312823,0.19718296207834768,0.7959237206502291
0.1790036331738721,0.014101362441366665,1.4946998894075215e-07,2.900735670455313,0.19082805239540815,0.7959237227602957
0.17989104495306268,0.014094170001586729,1.4433022774162075e-07,2.6757554432898045,0.18467796225062585,0.7959237251217223
0.18077845673225326,0.014087130480421553,1.3935612271478163e-07,2.464351240090113,0.17872609028453162,0.7959237277811205
0.18166586851144384,0.014080259165373041,1.3454233487217856e-07,2.266387387490675,0.17296604790030232,0.795923730797228
0.18255328029063442,0.01407356906483039,1.2988369732620437e-07,2.081606881054123,0.1673916524063933,0.7959237342454133
0.183440692069825,0.014067070974320632,1.2537520975527902e-07,1.909650806786172,0.16199692038018623,0.7959237382244891
0.18432810384901557,0.014060773578821528,1.210120330554339e-07,1.7500773829665466,0.15677606124552598,0.7959237428674174
0.18521551562820615,0.01405468358304331,1.1678948417834585e-07,1.602380060124131,0.15172347105725498,0.7959237483589233
0.18610292740739673,0.014048805862596835,1.1270303116374078e-07,1.4660042782815679,0.14683372648607265,0.7959237549661653
0.1869903391865873,0.014043143631163577,1.0874828839333424e-07,1.3403626450801922,0.14210157899726386,0.7959237630960851
0.18787775096577788,0.014037698624461045,1.0492101215146827e-07,1.2248484997985174,0.1375219492170474,0.7959237734131752
0.18876516274496846,0.014032471322718544,1.0121709679461576e-07,1.118848263491147,0.13308992148049764,0.7959237871143869
0.18965257452415904,0.014027461354693042,9.763257297631705e-08,1.021755100569746,0.12880073855518767,0.7959238067042994
0.19053998630334962,0.014022669758121376,9.416362173237576e-08,0.9330129197964313,0.12464979653489018,0.7959238389863251
0.1914273980825402,0.01401866279034273,9.081043642269599e-08,0.8618847174625535,0.12063263989785525,0.7959239179309617
0.19231480986173077,0.01401665812212258,8.758375130614274e-08,0.826031952919778,0.11674495672448557,0.7959296304157852
0.19320222164092135,0.014015498786309076,8.449257878471759e-08,0.7994664564686438,0.11298257406935669,0.7959597654822645
0.19408963342011193,0.014015485846208337,8.15465731618826e-08,0.7844782337666291,0.10934145348200294,0.7960243427749646
0.1949770451993025,0.01401729163035802,7.879485590493766e-08,0.7862359934077358,0.10581768667214457,0.7961482496669698
0.19586445697849308,0.014021587042281885,7.641950632760696e-08,0.7965738901493848,0.1024074913158776,0.796416133315763
0.19675186875768366,0.01403059620806184,7.462757138366019e-08,0.7860259272475962,0.09910720700004341,0.7971189381908055
0.19763928053687424,0.01404822863353529,7.343083471129389e-08,0.7674741080906107,0.09591329129383132,0.7984860505802055
0.19852669231606482,0.014074885829892247,7.271911142575756e-08,0.7492138127753167,0.09282231593989633,0.8005106614295038
0.1994141040952554,0.014110054518599697,7.239712236684236e-08,0.7330292554341191,0.08983096317059987,0.8031472344457155
0.20030151587444597,0.014153116764858158,7.239562947416168e-08,0.7191573619025557,0.08693602214739005,0.8063493609299264
0.20118892765363655,0.01420347948529611,7.266513090794095e-08,0.7074342213910433,0.08413438551530021,0.810074284627196
0.20207633943282713,0.014260598129246245,7.3170259330589e-08,0.6975967522857395,0.08142304606829322,0.8142833060436169
0.2029637512120177,0.01432397836162223,7.388585646882348e-08,0.6893750434247403,0.07879909352190184,0.8189414809610397
0.20385116299120828,0.014393172354889537,7.479429910714132e-08,0.6825216548924988,0.07625971138976069,0.8240172024491689
0.20473857477039886,0.014467773924520103,7.588367165341882e-08,0.6768193910648614,0.0738021739607219,0.8294817970220499
0.20562598654958944,0.014547413744643512,7.714650745064087e-08,0.6720813002451012,0.07142384337334003,0.8353091648513582
0.20651339832878002,0.014631755006796178,7.857891788185537e-08,0.6681479554214769,0.06912216678460609,0.8414754675276963
0.2074008101079706,0.014720489599299478,8.017999190482163e-08,0.6648839868953785,0.06689467362990577,0.8479588595278633
0.20828822188716117,0.014813334787442803,8.195138937494306e-08,0.6621746444397607,0.06473897297127008,0.8547392578290041
0.20917563366635175,0.014910030343499851,8.389707778348335e-08,0.6599226777389091,0.06265275093107937,0.861798144154744
0.21006304544554233,0.015010336069090873,8.602317932064192e-08,0.6580456178314913,0.06063376820847069,0.8691183949124064
0.2109504572247329,0.01511402965507593,8.83379068663688e-08,0.6564734562144889,0.05867985767578717,0.8766841345648232
0.21183786900392348,0.015220904829953148,9.085157572466876e-08,0.6551466848328568,0.05678892205249197,0.8844806088315058
0.21272528078311406,0.015330769754189724,9.357668398394803e-08,0.6540146501073778,0.054958931654052495,0.8924940746880026
0.21361269256230464,0.015443445624060286,9.65280591807791e-08,0.6530341742524782,0.05318792221338138,0.9007117046219784
0.21450010434149522,0.01555876545406041,9.97230730722745e-08,0.6521684013411166,0.051473992772497326,0.9091215030160277
0.2153875161206858,0.01567657301172249,1.0318193023867688e-07,0.6513858310890042,0.049815303642144815,0.9177122328704646
0.21627492789987637,0.01579672188271946,1.0692804032888065e-07,0.6506595088968965,0.04821007442718515,0.9264733513648887
0.21716233967906695,0.015919074647571915,1.1098848840371579e-07,0.6499663457820418,0.0466565821156412,0.9353949529947068
0.21804975145825753,0.016043502154160283,1.1539462344440988e-07,0.6492865462701494,0.04515315922934793,0.9444677192162706
0.2189371632374481,0.016169882872667372,1.201827921960052e-07,0.6486031260903596,0.04369819203422656,0.9536828736988479
0.21982457501663868,0.016298102321610157,1.2539525479807057e-07,0.6479015046702543,0.0422901188082654,0.963032142418987
0.22071198679582926,0.016428052555327234,1.3108133107890818e-07,0.6471691600428694,0.040927428165353705,0.9725077179477422
0.22159939857501984,0.016559631704723108,1.3729884333420106e-07,0.6463953359341857,0.039608657433175445,0.9821022273775913
0.22248681035421042,0.016692743564267497,1.4411594489999225e-07,0.6455707924144483,0.03833239108343023,0.9918087034168656
0.223374222133401,0.016827297217467514,1.5161345550608e-07,0.6446875666342182,0.037097259212707484,1.001620558244215
0.22426163391259157,0.016963206683560734,1.598878674721174e-07,0.6437386660174407,0.03590193607239747,1.011531559240983
0.22514904569178215,0.017100390617839956,1.6905527459916815e-07,0.6427181819964739,0.03474513864608052,1.0215358065971123
