Time [s],Lmtc [m],STIM [ ],Fsee [N],Gamma [ ],Lcerel [ ]
0.0,0.017906379474980482,0.9999996248292908,2.766008716877314,0.12000249729221743,1.073581711199599
0.0006531793963945841,0.017925748612555435,0.9999996293638659,3.4025025813098737,0.13036297579518144,1.0735817111964223
0.0013063587927891682,0.01794425483525639,0.9999996338449986,4.0721574692426685,0.1406014772320038,1.0735817096077604
0.0019595381891837522,0.017961708129136594,0.9999996382733127,4.758794235781959,0.1507194376758016,1.0735817073447491
0.0026127175855783363,0.017977984633732968,0.9999996426490995,5.447318677578348,0.16071827629236596,1.073581703377152
0.0032658969819729204,0.017988477897588256,0.9999996445278073,5.915863545812853,0.17059939553921336,1.0735816877095372
0.0039190763783675045,0.01799456034118816,0.9999996410492655,6.25179408676985,0.18036418133351403,1.0734951527980734
0.004572255774762089,0.017998319324050226,0.9999996323391651,6.562408194648271,0.19001400324193277,1.0732917252400271
0.005225435171156673,0.01800002959947265,0.9999996193805493,6.847864753239751,0.19955021470828244,1.072987504560975
0.005878614567551257,0.017999938129750308,0.9999996027922391,7.108940737374463,0.2089741532534363,1.0725963473382594
0.006531793963945841,0.01799826429890222,0.9999995829734082,7.346837265469544,0.218287140658506,1.0721300920625936
0.007184973360340425,0.01799520162601545,0.9999995601836764,7.563026550381095,0.22749048314756476,1.0715988191238217
0.007838152756735009,0.01799091996735834,0.9999995345894296,7.759129148255174,0.2365854715691619,1.071011101539204
0.008491332153129593,0.017985567858378557,0.9999995062915876,7.936818996224933,0.24557338157624653,1.070374231723973
0.009144511549524177,0.01797927484034021,0.9999994753426911,8.097753844590992,0.2544554738042989,1.069694420033989
0.009797690945918761,0.01797215368370197,0.9999994417575614,8.243527451189223,0.2632329940475659,1.06897696524627
0.010450870342313345,0.01796430245559227,0.9999994055199292,8.375639295357526,0.27190717343334814,1.068226399136491
0.01110404973870793,0.017955806402965197,0.9999993665864251,8.495477660728053,0.2804792285943116,1.0674466081139184
0.011757229135102513,0.01794673964064078,0.9999993248887632,8.604312441823543,0.2889503618388194,1.066640935049957
0.012410408531497098,0.017937166645769238,0.9999992803346175,8.703294695103697,0.29732176131928156,1.0658122642899186
0.013063587927891682,0.017927143568287715,0.9999992328074913,8.793460623051267,0.30559460119853565,1.0649630925414986
0.013716767324286266,0.017916719371634946,0.9999991821657492,8.875738271084044,0.31377004181426504,1.0640955879855767
0.01436994672068085,0.017905936820258164,0.9999991282408958,8.950955702809823,0.321849229841471,1.0632116396081037
0.015023126117075434,0.01789483333105072,0.9999990708351171,9.019849798535642,0.32983329845301146,1.062312898432234
0.015676305513470018,0.017883441705391925,0.9999990097180558,9.083075107266094,0.3377233674782208,1.0614008120481648
0.016329484909864602,0.017871790757362293,0.9999989446227368,9.141212390474923,0.34552054355962397,1.0604766535967556
0.016982664306259186,0.01785990585228308,0.9999988752405172,9.194776643523536,0.3532259203077577,1.0595415461597453
0.01763584370265377,0.01784780936818433,0.9999988012148816,9.244224482515744,0.36084057845411005,1.0585964833403183
0.018289023099048354,0.017835521091269502,0.9999987221338363,9.289960852725589,0.36836558600218555,1.057642346678219
0.01894220249544294,0.01782305855499353,0.9999986375205818,9.33234505897475,0.37580199837670236,1.0566799204289905
0.019595381891837522,0.01781043733104509,0.9999985468220359,9.371696145619088,0.3831508585709232,1.0557099041430713
0.020248561288232107,0.01779767127933972,0.9999984493946453,9.408297669411086,0.39041319729211665,1.054732923403759
0.02090174068462669,0.017784772763089703,0.9999983444867397,9.442401916248794,0.3975900331051397,1.05374953902035
0.021554920081021275,0.01777175283411355,0.9999982312164286,9.474233615415713,0.40468237257412,1.05276025492154
0.02220809947741586,0.017758621392770065,0.9999981085436939,9.503993204252994,0.4116912104022117,1.0517655249522322
0.022861278873810443,0.017745387326237386,0.9999979752348399,9.531859693589515,0.4186175295693762,1.050765758742568
0.023514458270205027,0.017732058628291095,0.9999978298167567,9.557993180565886,0.4254623014681238,1.0497613267898067
0.02416763766659961,0.01771864250325571,0.9999976705174415,9.582537051307035,0.43222648603711644,1.0487525648705187
0.024820817062994195,0.017705145456397325,0.9999974951877196,9.605619911598898,0.4389110318924992,1.0477397778814492
0.02547399645938878,0.017691573372681776,0.999997301196863,9.627357279537836,0.44551687645676297,1.0467232431916487
0.026127175855783363,0.017677931585533,0.9999970852913683,9.647853070182906,0.4520449460848612,1.0457032135754056
0.026780355252177947,0.017664224936981218,0.9999968434007898,9.667200898619226,0.45849615618718087,1.0446799197846812
0.02743353464857253,0.017650457830384245,0.9999965703659427,9.685485224565346,0.4648714113487758,1.0436535728107266
0.028086714044967116,0.017636634276730786,0.9999962595506949,9.702782358729909,0.47117160544400033,1.042624365877052
0.0287398934413617,0.017622757935386896,0.9999959022747223,9.719161348528228,0.4773976217452214,1.0415924761996085
0.029393072837756284,0.01760883215002241,0.9999954869628909,9.734684758486274,0.4835503330235713,1.0405580665447878
0.030046252234150868,0.017594859980348238,0.9999949978311301,9.749409358658502,0.48963060163850186,1.0395212866113939
0.030699431630545452,0.017580844230206217,0.9999944127847167,9.763386732639267,0.4956392796108106,1.0384822742590283
0.031352611026940036,0.017566787472476773,0.9999936999171837,9.776663815225657,0.5015772086700663,1.0374411566021502
0.032005790423334624,0.017552692071205217,0.9999928113871727,9.789283368464362,0.5074452202602533,1.0363980509864166
0.03265896981972921,0.01753856020129228,0.9999916720554844,9.801284403659395,0.5132441354732632,1.035353065861648
0.0333121492161238,0.01752439386604718,0.9999901567809701,9.812702555902511,0.5189747648493903,1.0343063015638287
0.033965328612518386,0.01751019491286099,0.9999880405342013,9.823570416781903,0.5246379079128773,1.0332578510169346
0.034618508008912974,0.017495965047222808,0.9999848738968676,9.833917830087927,0.530234352125605,1.0322078003640285
0.03527168740530756,0.01748170584527156,0.9999796105139908,9.8437721545671,0.5357648703873343,1.0311562295359786
0.03592486680170215,0.017467418765069204,0.9999691233132488,9.853158497928957,0.5412302141793003,1.03010321276557
0.036578046198096736,0.017453105157139798,0.9999379195709874,9.862099946742424,0.5466310893196945,1.0290488190557165
0.037231225594491324,0.017438847320785763,0.3274955460780296,9.875389198782573,0.5519680109180876,1.0279931126233572
0.03788440499088591,0.017424305386759136,2.8764346412482125e-05,9.871924369565974,0.5466200460632361,1.0269374448775033
0.0385375843872805,0.017409519403721548,1.3586273209863485e-05,9.852164630910162,0.5335975799660079,1.0258841767821565
0.03919076378367509,0.01739475092370111,8.528128361463244e-06,9.830533838787378,0.5208850164850294,1.0248345304580768
0.039843943180069674,0.01738000168559795,6.016495954070602e-06,9.806914030566547,0.508475213203727,1.0237887869405422
0.04049712257646426,0.017365273627308053,4.525435871934518e-06,9.781181586970606,0.4963610174386399,1.022747250289529
0.04115030197285885,0.01735056891418469,3.544745480633853e-06,9.753207692827331,0.4845354105655514,1.021710249314986
0.04180348136925344,0.0173358899664371,2.855398693593185e-06,9.722858689039116,0.47299152902549974,1.0206781393826552
0.042456660765648024,0.017321239488943225,2.3477725559381892e-06,9.689996506842082,0.4617226675676016,1.019651304318078
0.04310984016204261,0.017306620504119758,1.960930556053898e-06,9.654479219866845,0.45072227808385057,1.018630158411778
0.0437630195584372,0.017292036388176404,1.6583019683359077e-06,9.616161732662421,0.439983967025099,1.0176151485256542
0.04441619895483179,0.017277490911006388,1.4166157522198634e-06,9.574896620680557,0.4295014922991621,1.0166067562987975
0.045069378351226375,0.01726298827992632,1.2203631923952833e-06,9.530535134932457,0.41926875997917434,1.0156055004491804
0.04572255774762096,0.017248533187438138,1.058814401668872e-06,9.482928382676068,0.4092798209584439,1.014611939165672
0.04637573714401555,0.017234130863134984,9.243126059098334e-07,9.431928693038524,0.3995288676139242,1.0136266725825778
0.04702891654041014,0.017219787129805562,8.112502836212237e-07,9.377391173194736,0.3900102305085403,1.0126503453262392
0.047682095936804725,0.017205508463706352,7.154290227662484e-07,9.319175456474722,0.38071837514768764,1.0116836491202794
0.04833527533319931,0.01719130205886395,6.336451805228437e-07,9.257147638472862,0.3716478987977601,1.0107273254326459
0.0489884547295939,0.017177175895140187,5.634135795099629e-07,9.191182390846842,0.36279352737060405,1.0097821681438173
0.04964163412598849,0.017163138809639072,5.027784102805691e-07,9.121165235045343,0.3541501123756188,1.008849026211313
0.050294813522383075,0.017149200570856782,4.501808325696105e-07,9.04699494979054,0.34571262793996815,1.007928806301019
0.05094799291877766,0.017135371954775228,4.0436438462253096e-07,8.968586076949942,0.3374761678966325,1.0070224753508272
0.05160117231517225,0.017121664821879067,3.643061764399637e-07,8.885871480751875,0.32943594293958645,1.0061310630267417
0.05225435171156684,0.01710809219384041,3.2916602347951827e-07,8.798804905527716,0.32158727784511343,1.005255664026027
0.052907531107961425,0.01709466832837053,2.982482909074516e-07,8.707363467810698,0.3139256087581137,1.0043974401761835
0.05356071050435601,0.017081408790494926,2.709728915206801e-07,8.611550010295137,0.3064464805421563,1.0035576222728146
0.0542138899007506,0.017068330518276054,2.4685297457572676e-07,8.511395238545711,0.29914554419197675,1.0027375115938217
0.05486706929714519,0.017055451880802795,2.2547757230653846e-07,8.406959557172168,0.2920185543070914,1.0019384810222127
0.055520248693539775,0.01704279272610036,2.0649796605218825e-07,8.298334521163616,0.28506136662518894,1.0011619757052617
0.05617342808993436,0.017030374417257757,1.8961687553829615e-07,8.18564386111452,0.27826993561396596,1.00040951317426
0.05682660748632895,0.017018219858856667,1.745798157462711e-07,8.069044239779027,0.27164031212008,0.9996826828598943
0.05747978688272354,0.017006353453014107,1.6116813098123198e-07,7.948722433064929,0.26516864107391097,0.9989831451350761
0.058132966279118126,0.016994801157553183,1.491933348574537e-07,7.824898584005082,0.2588511592488412,0.9983126292888512
0.05878614567551271,0.0169835904207558,1.3849248979202977e-07,7.697823525916385,0.25268419307378664,0.9976729303534548
0.0594393250719073,0.01697275010800786,1.289244139087944e-07,7.567776019018302,0.24666415649773488,0.9970659053697618
0.06009250446830189,0.01696231041505055,1.2036654922484684e-07,7.435059916014102,0.24078754890507142,0.9964934687091553
0.060745683864696476,0.01695230275584199,1.1271236504533831e-07,7.300000715046073,0.23505095308049884,0.9959575863852485
0.06139886326109106,0.016942759624785506,1.0586919836914369e-07,7.1629415701137775,0.22945103322238036,0.9954602693196245
0.06205204265748565,0.01693371443349935,9.9756454383071e-08,7.024238847860437,0.2239845330033648,0.9950035655332357
0.06270522205388024,0.016925201322524994,9.430410656249466e-08,6.884257331507016,0.2186482736771757,0.9945895512345261
0.06335840145027483,0.01691725494822933,8.945144864718018e-08,6.743365174948003,0.21343915223046922,0.9942203207588014
0.06401158084666941,0.016909910244404778,8.514606059316643e-08,6.601928699167315,0.20835413957869708,0.9938979752692467
0.064664760243064,0.01690320215628953,8.134295797312843e-08,6.4603070910137195,0.2033902788049265,0.993624610042015
0.06531793963945859,0.01690637947498048,1.533858563556564e-07,6.760270999900955,0.19854468344060344,0.993402300002809
0.06566072550998032,0.01690322104542412,1.5133126355705672e-07,6.607280633735913,0.19604810267400472,0.9934023000010977
0.06600351138050206,0.01690004570065635,1.493025093190703e-07,6.455235790513144,0.19358291649852805,0.9934023003588084
0.0663462972510238,0.016896855348016684,1.4729926677103994e-07,6.304254715976862,0.1911487301260839,0.9934023007277192
0.06668908312154553,0.016893651839842094,1.4532121510651574e-07,6.154448722976917,0.18874515373305661,0.9934023011084558
0.06703186899206727,0.016890437037826393,1.4336803755329112e-07,6.005925487953328,0.18637180239787624,0.993402301501688
0.067374654862589,0.016887212808226915,1.41439421322676e-07,5.858788767311111,0.18402829603937512,0.9934023019081325
0.06771744073311074,0.01688398101712952,1.3953505755940947e-07,5.7131381385565865,0.1817142593559199,0.9934023023285574
0.06806022660363248,0.016880743525797808,1.376546412922028e-07,5.5690687673163,0.17942932176530818,0.9934023027637898
0.06840301247415422,0.016877502186130985,1.3579787138490643e-07,5.426671201094749,0.1771731173454221,0.9934023032147148
0.06874579834467595,0.01687425883625374,1.3396445048829238e-07,5.286031190361998,0.1749452847756272,0.9934023036822887
0.06908858421519769,0.01687101529625904,1.321540849924449e-07,5.1472295372996015,0.17274546727890863,0.9934023041675414
0.06943137008571942,0.016867773364123647,1.3036648497975187e-07,5.010341972278799,0.17057331256473524,0.9934023046715863
0.06977415595624116,0.016864534811813558,1.2860136417848998e-07,4.87543905789852,0.1684284727726416,0.9934023051956278
0.0701169418267629,0.01686130138159499,1.2685843991699656e-07,4.742586120179619,0.16631060441651996,0.9934023057409723
0.07045972769728463,0.016858074782563983,1.2513743307842064e-07,4.611843206294113,0.16421936832961256,0.9934023063090397
0.07080251356780637,0.016854856687405773,1.2343806805604733e-07,4.483265068009719,0.16215442961019547,0.9934023069013751
0.0711452994383281,0.016851648729392897,1.2176007270918863e-07,4.356901169849903,0.16011545756794568,0.9934023075196654
0.07148808530884984,0.016848452499628696,1.201031783196338e-07,4.2327957208115325,0.1581021256709828,0.9934023081657559
0.07183087117937158,0.016845269544540978,1.184671195486547e-07,4.110987728344096,0.1561141114935762,0.9934023088416702
0.07217365704989331,0.016842101363628445,1.16851634394559e-07,3.9915110731796455,0.15415109666451035,0.9934023095496348
0.07251644292041505,0.01683894940746061,1.1525646415078645e-07,3.8743946035096397,0.1522127668160987,0.9934023102921059
0.07285922879093679,0.016835815075930054,1.1368135336454327e-07,3.75966224693305,0.1502988115338396,0.9934023110718003
0.07320201466145852,0.016832699716754346,1.1212604979597047e-07,3.647333138550886,0.14840892430670483,0.9934023118917359
0.07354480053198026,0.016829604624223088,1.1059030437784291e-07,3.5374217635516536,0.146542802478053,0.9934023127552742
0.073887586402502,0.01682653103818451,1.090738711757951e-07,3.4299381126225637,0.1447001471971606,0.993402313666177
0.07423037227302373,0.016823480143264465,1.0757650734907371e-07,3.3248878485285513,0.14288066337136252,0.9934023146286709
0.07457315814354547,0.016820453068309777,1.0609797311181617e-07,3.2222724822254336,0.14108405961879444,0.9934023156475251
0.0749159440140672,0.016817450886046983,1.046380316948575e-07,3.1220895569126323,0.13931004822172918,0.9934023167281494
0.07525872988458894,0.016814474612946752,1.0319644930807163e-07,3.0243328384836516,0.13755834508050013,0.9934023178767138
0.07560151575511068,0.016811525209283706,1.0177299510325558e-07,2.9289925108984565,0.13582866966800392,0.9934023191002964
0.07594430162563241,0.016808603579381205,1.0036744113757164e-07,2.8360553750770037,0.13412074498477558,0.9934023204070691
0.07628708749615415,0.01680571057203058,9.897956233757234e-08,2.745505050001207,0.1324342975146279,0.9934023218065366
0.07662987336667589,0.01680284698107458,9.760913646384363e-08,2.6573221748093143,0.1307690571808497,0.9934023233098421
0.07697265923719762,0.016800013546145583,9.625594407632146e-08,2.5714846107754843,0.12912475730295356,0.9934023249301621
0.07731544510771936,0.016797210953550752,9.491976850036555e-08,2.4879676421917525,0.12750113455396897,0.9934023266832359
0.0776582309782411,0.01679443983729863,9.360039579371991e-08,2.406744175316426,0.1258979289182711,0.9934023285880736
0.07800101684876283,0.016791700780266327,9.22976147145646e-08,2.327784934737664,0.12431488364994085,0.9934023306679303
0.07834380271928457,0.016788994315514092,9.101121669098712e-08,2.2510586567565647,0.12275174523164817,0.993402332951665
0.0786865885898063,0.01678632092776871,8.974099579241975e-08,2.176532279787252,0.12120826333405227,0.9934023354757036
0.07902937446032804,0.016783681055124407,8.84867487039863e-08,2.104171132445721,0.11968419077571266,0.9934023382869324
0.07937216033084978,0.016781075091066376,8.724827470546046e-08,2.0339391212957327,0.11817928348350415,0.9934023414471238
0.07971494620137151,0.016778503387044702,8.602537565808117e-08,1.9657989229697987,0.11669330045352984,0.9934023450399827
0.08005773207189325,0.016775966256117367,8.481785600585566e-08,1.899712191846797,0.11522600371252524,0.9934023491829194
0.08040051794241498,0.016773463978945226,8.362552280610237e-08,1.8356398114576908,0.11377715827974802,0.9934023540479442
0.08074330381293672,0.016770996815710693,8.24481858259836e-08,1.7735422689264155,0.11234653212934691,0.9934023599017191
0.08108608968345846,0.01676856503571253,8.128565781184131e-08,1.7133804157575931,0.11093389615320408,0.9934023671905684
0.08142887555398019,0.016766169014195264,8.01377553216675e-08,1.6551177349724966,0.10953902412424432,0.993402376748494
0.08177166142450193,0.016763809713998004,7.900430223021313e-08,1.598731354458115,0.10816169266020587,0.9934023904283977
0.08211444729502367,0.016761495852706604,7.788516956487182e-08,1.544376887750657,0.10680168118786677,0.9934024138930975
0.0824572331655454,0.01675982839479409,7.678308513053486e-08,1.5057704207523042,0.10545877190772193,0.9934024921107131
0.08280001903606714,0.01675876626021696,7.570286941738786e-08,1.4805254353501742,0.10413274975913919,0.9934054454232323
0.08314280490658887,0.016757863517097803,7.464644111900469e-08,1.457400378252468,0.10282340238594427,0.993413871057412
0.08348559077711061,0.01675712877583596,7.361364685285977e-08,1.436390418036312,0.10153052010237565,0.9934282655451537
0.08382837664763235,0.0167565798839072,7.260468697126685e-08,1.4176554268117196,0.10025389585947775,0.9934492692886762
0.08417116251815408,0.01675624145894171,7.162028422525403e-08,1.4014309219166434,0.09899332521194762,0.9934777648041621
0.08451394838867582,0.016756147456038695,7.066193083840622e-08,1.388047428495951,0.09774860628540052,0.9935149990316678
0.08485673425919756,0.01675634578505624,6.973233383369164e-08,1.3779710583671279,0.09651953974405,0.9935627877969758
0.08519952012971929,0.016756905930844897,6.883627954529827e-08,1.3718620171971916,0.09530592875880019,0.9936238847283407
0.08554230600024103,0.0167579309431693,6.798244053778641e-08,1.370627831853602,0.09410757897575037,0.9937026977338872
0.08588509187076276,0.01675957189124861,6.71873826616819e-08,1.3753003903825312,0.0929242984851179,0.9938067927272433
0.0862278777412845,0.016762021803719118,6.648398380235136e-08,1.3859123533312965,0.09175589779060275,0.9939502312379082
0.08657066361180624,0.016765450167560578,6.593116814499372e-08,1.3979786709228528,0.0906021897792431,0.9941603366322138
0.08691344948232797,0.016770112679710146,6.560191523218394e-08,1.403189652968962,0.08946298969177197,0.9944830563912784
0.08725623535284971,0.01677657308050429,6.554828930103355e-08,1.3997848590386177,0.0883381150931963,0.9949651416841407
0.08759902122337145,0.016785310057406126,6.578954473314977e-08,1.3911550610683734,0.08722738584330614,0.995630397017781
0.08794180709389318,0.016796532807118427,6.632918576874732e-08,1.3801032579014592,0.08613062406740497,0.9964849447923381
0.08828459296441492,0.016810294615960182,6.716923286937146e-08,1.3681584800802815,0.08504765412762277,0.9975276798525304
