Time [s],Lmtc [m],STIM [ ],Fsee [N],Gamma [ ],Lcerel [ ]
0.0,0.019653947790797446,0.9999998162130566,0.6270860197005906,0.05935816011758301,1.2077401747312269
0.0016921585864481158,0.01970969132073707,0.9999998220680635,1.7268789840968495,0.08778019442434909,1.2077401747227143
0.0033843171728962316,0.019745792554710005,0.9999998167950866,2.730154187502373,0.11534344062356222,1.2077401413019253
0.005076475759344347,0.019753866042357068,0.9999997917090772,3.6490331216252145,0.14207384716075447,1.2063218204628874
0.006768634345792463,0.019740773653479548,0.9999997512347155,4.424788108858589,0.1679965781716744,1.2038637546077011
0.008460792932240578,0.019713834806735265,0.9999996985014376,5.0399117169600425,0.19313603757677764,1.2007995865610026
0.010152951518688693,0.019677790152498122,0.9999996355311577,5.513664269604391,0.21751589201243704,1.1973697866925037
0.011845110105136808,0.019635751140086637,0.99999956398993,5.878012279141404,0.2411590930749462,1.1937115972878045
0.013537268691584923,0.019589731739162293,0.9999994853632616,6.162426386159317,0.2640878989151183,1.1899062814547436
0.015229427278033038,0.019541032844312144,0.9999994009933093,6.3895662334339836,0.28632389518568907,1.186003899369382
0.016921585864481153,0.019490502948040396,0.9999993120823585,6.575644611883654,0.3078880153569056,1.182036468455964
0.018613744450929268,0.019438704582856035,0.9999992196920576,6.7319536653644905,0.32880056041837274,1.1780251601941931
0.020305903037377383,0.019386017878213712,0.9999991247458082,6.86631499024596,0.3490812179855748,1.1739843804687884
0.021998061623825498,0.019332704748313105,0.9999990280350752,6.984174320117294,0.368749080829153,1.1699241699733047
0.023690220210273612,0.019278949019481528,0.9999989302286045,7.089363292964179,0.387822664844502,1.1658516666917482
0.025382378796721727,0.01922488189442684,0.9999988318832956,7.184613319989709,0.4063199264786825,1.1617720261101065
0.027074537383169842,0.019170598404602966,0.9999987334556948,7.271899160000522,0.4242582796310987,1.157689017371801
0.028766695969617957,0.019116168244451993,0.999998635313373,7.35266910803101,0.4416546120438582,1.1536054197746541
0.030458854556066072,0.01906164304311852,0.9999985377457107,7.428000409734896,0.45852530119723334,1.1495232927721493
0.03215101314251419,0.019007061335882935,0.9999984409738182,7.498705307940931,0.4748862297251551,1.1454441637716322
0.033843171728962305,0.018952452023061207,0.9999983451594586,7.565404274060761,0.490752800365221,1.1413691612670662
0.035535330315410424,0.01889783681652538,0.9999982504129371,7.628577213920484,0.5061399504572477,1.1372991108494765
0.03722748890185854,0.018843231996964895,0.9999981567999768,7.6885997233371475,0.5210621660039819,1.1332346055233047
0.03891964748830666,0.018788649694225206,0.9999980643476408,7.745769074959333,0.5355334953071641,1.1291760579271268
0.04061180607475478,0.018734098832573137,0.9999979730493698,7.800323066792668,0.5495675621917506,1.1251237396063762
0.0423039646612029,0.018679585837150528,0.9999978828692189,7.852453849368571,0.5631775788307114,1.1210778108859172
0.043996123247651016,0.018625115167922125,0.9999977937453702,7.902318179726751,0.5763763581824458,1.117038343826737
0.045688281834099134,0.01857068972743845,0.9999977055929952,7.950045104287046,0.5891763260525001,1.1130053400318631
0.04738044042054725,0.018516311175205545,0.9999976183065331,7.995741771827204,0.6015895327909219,1.1089787445726584
0.04907259900699537,0.018461980172168553,0.999997531761441,8.039497872618517,0.6136276646362392,1.1049584569624293
0.05076475759344349,0.018407696166058734,0.9999974458154642,8.08136741723381,0.625302054716728,1.1009443398611127
0.05245691617989161,0.018353455917827496,0.9999973603094624,8.121284364501143,0.6366236937193089,1.096936226020906
0.054149074766339726,0.018299257714915758,0.9999972750678207,8.159282515943932,0.6476032402361018,1.0929339238568174
0.055841233352787845,0.018245099815017665,0.9999971898984611,8.195409901913086,0.6582510307983639,1.0889372219340296
0.05753339193923596,0.018190980110698727,0.9999971045924648,8.229708155457953,0.6685770896072506,1.084945892595877
0.05922555052568408,0.018136896191832837,0.9999970189232987,8.262213552754751,0.6785911379705408,1.080959694905446
0.0609177091121322,0.01808284539619253,0.9999969326456354,8.292957850870254,0.6883026034542041,1.0769783770355217
0.06260986769858032,0.018028824850566054,0.9999968454937385,8.321968966494765,0.6977206287574133,1.0730016782125618
0.06430202628502843,0.01797483150425125,0.9999967571793753,8.349271529054258,0.7068540803193427,1.06902933029812
0.06599418487147654,0.017920862156378312,0.9999966673891997,8.37488733395987,0.7157115566658452,1.0650610590739797
0.06768634345792465,0.017866913478208124,0.9999965757815324,8.398835715985516,0.7243013965038493,1.0610965852839331
0.06937850204437276,0.01781298203131714,0.9999964819824412,8.421133858385918,0.732631686571085,1.0571356254747033
0.07107066063082088,0.017759064282396722,0.999996385580996,8.441797050021478,0.7407102692485024,1.053177892670311
0.07276281921726899,0.01770515661525134,0.9999962861235396,8.460838900183145,0.7485447499425375,1.0492230969076841
0.0744549778037171,0.017651255340467076,0.9999961831067666,8.478271518819172,0.7561425042441432,1.045270945656123
0.07614713639016521,0.01759735670313267,0.9999960759693504,8.494105668315344,0.7635106848712985,1.0413211441391077
0.07783929497661332,0.017543456888923774,0.9999959640817773,8.508350891767128,0.7706562284014902,1.0373733955735704
0.07953145356306143,0.017489552028804298,0.9999958467339526,8.521015621726882,0.7775858618004644,1.0334274013390812
0.08122361214950954,0.017435638202552638,0.9999957231200064,8.532107272653503,0.7843061087533333,1.029482861087174
0.08291577073595766,0.01738171144128323,0.9999955923195539,8.541632319691056,0.7908232958039201,1.0255394727992577
0.08460792932240577,0.017327767729103768,0.9999954532744213,8.54959636592244,0.7971435583080418,1.0215969328000747
0.08630008790885388,0.017273803004023595,0.9999953047595149,8.556004199858565,0.8032728462062,1.01765493573246
0.08799224649530199,0.017219813158208294,0.9999951453460546,8.560859844612294,0.8092169296209702,1.0137131744981307
0.0896844050817501,0.01716579403765873,0.9999949733547321,8.564166599954312,0.8149814042841494,1.0097713401684032
0.09137656366819821,0.017111741441378798,0.999994786795433,8.565927078242789,0.8205716967985046,1.0058291218680269
0.09306872225464632,0.017057651206834966,0.9999945832889181,8.566147992277141,0.8259930697387166,1.0018862066347285
0.09476088084109444,0.01700351968660606,0.999994359967981,8.564863499487899,0.8312506265958228,0.9979422831249732
0.09645303942754255,0.016949340510259765,0.9999941133492238,8.561915273982127,0.8363493165692807,0.9939970979449225
0.09814519801399066,0.016895110370959802,0.9999938391445473,8.557273067644488,0.841293939210357,0.9900504514290046
0.09983735660043877,0.01684082651760203,0.9999935320047749,8.550936634578209,0.846089148919521,0.9861021452112048
0.10152951518688688,0.016786486150804393,0.9999931851653463,8.542905283530558,0.8507394593002023,0.9821519786731981
0.103221673773335,0.016732086422413337,0.9999927899403435,8.533177889341705,0.8552492473702844,0.9781997488988818
0.1049138323597831,0.016677624434789283,0.9999923349830409,8.521752902443682,0.8596227576310651,0.9742452506172552
0.10660599094623122,0.016623097239884584,0.9999918051768024,8.50862835661637,0.8638641059909249,0.9702882761343743
0.10829814953267933,0.016568501838124874,0.9999911799211323,8.493801875173958,0.867977283536926,0.9663286152549623
0.10999030811912744,0.016513835177102427,0.9999904303895549,8.477270675726537,0.8719661601406661,0.9623660551941547
0.11168246670557555,0.01645909415008806,0.9999895149597884,8.459031573635242,0.8758344878723242,0.9584003804797482
0.11337462529202366,0.016404275594366316,0.9999883712173042,8.439080984253946,0.8795859041734678,0.9544313728452366
0.11506678387847177,0.016349376289396922,0.9999869011064887,8.417414924023312,0.8832239346923839,0.9504588111138468
0.11675894246491988,0.016294392954803606,0.9999849412371847,8.394029010446665,0.8867519955850668,0.9464824710736978
0.118451101051368,0.01623932224818983,0.9999821975711581,8.368918460918554,0.8901733948494946,0.9425021253442031
0.12014325963781611,0.01618416076277824,0.9999780821795938,8.34207809025938,0.8934913316461168,0.9385175432337983
0.12183541822426422,0.016128905024867617,0.9999712236987877,8.313502306551955,0.896708890706457,0.9345284905892272
0.12352757681071233,0.016073551491100166,0.9999575103864837,8.283185104476704,0.8998290221189452,0.9305347296371216
0.12521973539716044,0.016018096545674168,0.9999164111824178,8.251120061196653,0.9028544625959374,0.9265360188210733
0.12691189398360855,0.01596254213161172,0.8658685914982163,8.217602928603114,0.9057872458067198,0.9225321126559932
0.12860405257005667,0.015906911444515896,3.6687037671831464e-05,8.183884016222967,0.9033698962350252,0.9185230141251177
0.13029621115650478,0.01585083458355494,1.5770434206642775e-05,8.12813095809848,0.8486656134647437,0.914511534388366
0.1319883697429529,0.015794649853855987,8.890242342282822e-06,8.066105888733997,0.7972728965940086,0.9105010425439987
0.133680528329401,0.015738353211298177,5.6037316581481085e-06,7.996834942676563,0.748992050772383,0.9064926858282341
0.1353726869158491,0.015681941064528387,3.753530390280558e-06,7.91916605654618,0.7036348420607526,0.9024879291248092
0.13706484550229722,0.0156254107046378,2.611896721212586e-06,7.831751687474075,0.6610243051182522,0.898488625481838
0.13875700408874533,0.015568760983928738,1.8656938941015009e-06,7.733038084388597,0.620994147364053,0.8944971011273732
0.14044916267519345,0.015511993365435545,1.3585852623071652e-06,7.621266626412278,0.5833881277542715,0.8905162575590744
0.14214132126164156,0.015455113505812107,1.0042816930939165e-06,7.4944946152594385,0.548059457567244,0.8865496935233077
0.14383347984808967,0.015398133581833772,7.516144794819547e-07,7.350644824735747,0.514870232223012,0.8826018498785863
0.14552563843453778,0.0153410756158222,5.685823915612056e-07,7.187594390286063,0.48369089539608334,0.878678180375946
0.1472177970209859,0.01528397608213496,4.343449442339891e-07,7.003313220308682,0.45439973461486244,0.8747853511791419
0.148909955607434,0.015226892060161793,3.348982203013243e-07,6.7960585701440595,0.4268824069221645,0.8709314713365767
0.15060211419388211,0.015169909104634045,2.6059853133433455e-07,6.564624137837507,0.4010314929993537,0.8671263551848506
0.15229427278033023,0.015113150794853751,2.046748496319345e-07,6.308628006165122,0.37674607814228156,0.8633818155106118
0.15398643136677834,0.015056789578564852,1.622992112012407e-07,6.028804798880144,0.3539313585227882,0.8597119828487473
0.15567858995322645,0.015001058063191441,1.2998637201962862e-07,5.727247651517292,0.332498271238288,0.8561336411775926
0.15737074853967456,0.014946259419242743,1.0519527102744816e-07,5.407533054276285,0.31236314672879945,0.8526665633862713
0.15906290712612267,0.014892775230929864,8.60582645517203e-08,5.074666652487785,0.2934473822190915,0.8493338221803474
0.16075506571257078,0.014841069212160569,7.11935483715023e-08,4.734818309056685,0.27567713492042545,0.8461620473493916
0.1624472242990189,0.01479168592962072,5.9573113627695896e-08,4.394866772836834,0.25898303380031,0.8431816081075446
0.164139382885467,0.014745244966783361,5.042876136051055e-08,4.0618249570139175,0.24329990879917415,0.8404267346782222
0.16583154147191512,0.014702431878998645,4.31850788469128e-08,3.7422230940295576,0.2285665364396951,0.8379356545011134
0.16752370005836323,0.014663985325801186,3.7412056823059283e-08,3.441458887868428,0.21472540083769437,0.8357508006270093
0.16921585864481134,0.014653947790789552,1.3008452327998069e-07,3.986237277281662,0.20172246918308587,0.8339186991608348
0.1697195565987178,0.014649505449684363,1.2750367697459925e-07,3.8217878056757875,0.1980062380943177,0.8339186991583148
0.17022325455262424,0.014645088414568483,1.2497038162354684e-07,3.6617087894694413,0.19435847264317696,0.8339187006766766
0.1707269525065307,0.014640701359855086,1.224837583810796e-07,3.5061060940803968,0.19077791145936057,0.8339187022921976
0.17123065046043714,0.014636348596432001,1.200429474030212e-07,3.355058403259587,0.18726331641130367,0.8339187040147468
0.1717343484143436,0.014632034209527005,1.1764710468748234e-07,3.2086242227043953,0.18381347217804284,0.8339187058555574
0.17223804636825005,0.014627762050081686,1.1529540178323331e-07,3.066842718748887,0.18042718582896758,0.8339187078274838
0.1727417443221565,0.0146235357284001,1.1298702550351438e-07,2.9297346733504264,0.17710328641131337,0.8339187099453238
0.17324544227606295,0.01461935860997182,1.1072117764520441e-07,2.7973035336321477,0.1738406245452551,0.833918712226223
0.1737491402299694,0.014615233813347662,1.0849707471327809e-07,2.669536534794695,0.17063807202645964,0.8339187146901933
0.17425283818387585,0.01461116420992973,1.0631394765049375e-07,2.546405876155694,0.16749452143596164,0.833918717360782
0.1747565361377823,0.014607152425525915,1.0417104157227611e-07,2.427869931346528,0.16440888575722604,0.8339187202659485
0.17526023409168875,0.014603200843512867,1.0206761550678564e-07,2.3138744752290195,0.1613800980002655,0.8339187234392281
0.1757639320455952,0.014599311609450997,1.0000294214021151e-07,2.204353911834299,0.15840711083268355,0.8339187269213129
0.17626762999950166,0.014595486637001453,9.797630756740324e-08,2.099232489537305,0.1554888962175147,0.8339187307622321
0.1767713279534081,0.014591727615010923,9.598701104807416e-08,1.9984254917572646,0.1526244450577368,0.8339187350244303
0.17727502590731456,0.014588036015661266,9.4034364769039e-08,1.9018403937829695,0.14981276684733283,0.8339187397872345
0.177778723861221,0.014584413103640205,9.211769361334555e-08,1.80937797906655,0.14705288932878094,0.8339187451535253
0.17828242181512746,0.014580859946407978,9.023633493796004e-08,1.7209334120679096,0.14434385815685566,0.8339187512600661
0.1787861197690339,0.014577377425892062,8.838963836330938e-08,1.6363972709370609,0.1416847365686216,0.8339187582941926
0.17928981772294036,0.014573966252558338,8.657696558170431e-08,1.5556565561694302,0.13907460505950836,0.8339187665222233
0.17979351567684682,0.014570626984470836,8.47976902009315e-08,1.478595724046998,0.1365125610653524,0.833918776341082
0.18029721363075327,0.014567360059168637,8.305119766564837e-08,1.4050978945543289,0.133997718650297,0.8339187883803096
0.18080091158465972,0.014564165866176839,8.133688538917767e-08,1.3350467709400384,0.1315292082004423,0.8339188037278027
0.18130460953856617,0.014561044991255375,7.965416363430064e-08,1.2683318270592103,0.12910617612313918,0.8339188245168125
0.18180830749247262,0.014557999678135687,7.800246074043717e-08,1.2048773764902987,0.12672778455182332,0.8339188558926782
0.18231200544637907,0.014555112895816026,7.63814428959497e-08,1.1462210102787893,0.12439321105628727,0.8339189166801156
0.18281570340028552,0.014553414166485139,7.47935762569234e-08,1.1122309438495517,0.12210164835829435,0.8339195342229468
0.18331940135419197,0.014552209770597674,7.324155738504204e-08,1.086381921060695,0.11985230405247911,0.8339276573739762
0.18382309930809843,0.014551316731831018,7.172554340252176e-08,1.0641672291955215,0.11764440033234255,0.8339459059678154
0.18432679726200488,0.014550785788865456,7.024572026773037e-08,1.0459761376545464,0.11547717372124397,0.8339761024762925
0.18483049521591133,0.014550700665522307,6.880336652121728e-08,1.0325376505377,0.1133498748083968,0.8340211802621994
0.18533419316981778,0.014551198827417521,6.740191303550157e-08,1.025054636132903,0.1112617679897474,0.8340861916614487
0.18583789112372423,0.01455251113927381,6.604980947474673e-08,1.0253591960874493,0.1092121312136478,0.8341806755370064
0.18634158907763068,0.014554977913567807,6.476862975653818e-08,1.0345714660506709,0.10720025573126592,0.8343251650859865
0.18684528703153713,0.014558871180275828,6.360401769687182e-08,1.0448742122458572,0.10522544585174469,0.8345696369192956
0.18734898498544358,0.014564886140572704,6.260490454379276e-08,1.0436236622191692,0.1032870187020725,0.8350128264000514
0.18785268293935004,0.014574286546267022,6.178710905418739e-08,1.033967381278427,0.1013843039909953,0.8357348765328568
0.1883563808932565,0.014587624355610942,6.11380925823077e-08,1.021443456509979,0.09951664377660775,0.8367551257799842
0.18886007884716294,0.014604967552755865,6.063913226048454e-08,1.0085255507305049,0.09768339223831297,0.8380691481784593
0.1893637768010694,0.014626228001480803,6.027304478887531e-08,0.9961873260322569,0.09588391545339353,0.8396667586687591
0.18986747475497584,0.014651270633408472,6.002546059285571e-08,0.9848017550062049,0.0941175911778396,0.8415366137778766
0.1903711727088823,0.014679948406067955,5.988468884022901e-08,0.9744883215961117,0.09238380863123903,0.8436674649796038
0.19087487066278874,0.014712114674351497,5.984133283655834e-08,0.9652531827820565,0.09068196828562836,0.8460485358434637
0.1913785686166952,0.014747627855471929,5.988791206087947e-08,0.9570506475603792,0.08901148165822619,0.8486696298181299
0.19188226657060165,0.014786353143295277,6.001854371156588e-08,0.9498120988968124,0.08737177110797867,0.8515211441801892
0.1923859645245081,0.014828162991443409,6.022868700872787e-08,0.9434602894169463,0.08576226963584724,0.8545940490280854
0.19288966247841455,0.01487293705517752,6.05149419014286e-08,0.9379166032354298,0.08418242068877077,0.8578798534522765
0.193393360432321,0.014920561892774933,6.087489240479961e-08,0.9331047500273072,0.08263167796723629,0.8613705678975055
0.19389705838622745,0.014970930565854286,6.130698601677267e-08,0.9289525765748471,0.08110950523639149,0.8650586665667044
0.1944007563401339,0.01502394220614163,6.18104423692814e-08,0.925392858600548,0.0796153761406352,0.8689370515187241
0.19490445429404035,0.015079501582058159,6.238518584434982e-08,0.9223635334083902,0.07814877402162207,0.8729990191226517
0.1954081522479468,0.015137518681549578,6.303179819794222e-08,0.919807627284671,0.07670919173961892,0.8772382290690074
0.19591185020185325,0.01519790831883192,6.375148829433679e-08,0.9176730211243954,0.07529613149815147,0.8816486759186957
0.1964155481557597,0.015260589768111035,6.454607690907849e-08,0.9159121366167411,0.07390910467188097,0.8862246630684739
0.19691924610966616,0.015325486424867273,6.541799526092579e-08,0.9144815905451443,0.07254763163765215,0.8909607789678634
0.1974229440635726,0.015392525493992313,6.637029652859339e-08,0.9133418445323365,0.07121124160865303,0.8958518754082385
0.19792664201747906,0.015461637703399476,6.74066801356184e-08,0.9124568656034852,0.06989947247163097,0.9008930477056201
0.1984303399713855,0.015532757041421935,6.853152907999049e-08,0.9117938057960264,0.06861187062710802,0.90607961660693
0.19893403792529196,0.01560582051620837,6.974996107464171e-08,0.9113227047582303,0.06734799083254046,0.9114071117610794
0.1994377358791984,0.015680767935333968,7.106789477982517e-08,0.9110162167168093,0.06610739604836906,0.9168712566091121
0.19994143383310486,0.015757541703914878,7.249213297948461e-08,0.910849361685856,0.06488965728690697,0.9224679545605615
0.20044513178701132,0.015836086639616442,7.403046521553244e-08,0.9107992999298544,0.06369435346401282,0.9281932763355909
0.20094882974091777,0.01591634980306138,7.569179318803965e-08,0.9108451282350409,0.06252107125349868,0.9340434483640878
0.20145252769482422,0.015998280342264283,7.7486283207992e-08,0.9109676963314223,0.061369404944222404,0.9400148421435617
0.20195622564873067,0.016081829349836266,7.942555122061943e-08,0.9111494417467374,0.06023895629981589,0.9461039644674154
0.20245992360263712,0.016166949731815934,8.152288749235439e-08,0.9113742414020112,0.05912933442100075,0.9523074484439651
0.20296362155654357,0.016253596087087492,8.379353009707862e-08,0.9116272783385393,0.058040155610444906,0.9586220452345005
0.20346731951045002,0.016341724596444108,8.625499901864508e-08,0.9118949220732092,0.05697104324011403,0.9650446164458253
