Time [s],Lmtc [m],STIM [ ],Fsee [N],Gamma [ ],Lcerel [ ]
0.0,0.02201477930343984,0.999999920997821,1.1281264330822893,0.06497426620149369,1.3777178606913023
0.0023573919589430547,0.02200464804011636,0.9999999107500975,0.9355157414155879,0.10409815995261605,1.377717860679012
0.004714783917886109,0.021850019988132026,0.9999998773355243,1.588665354955298,0.14158500828651063,1.3641658097359735
0.007072175876829164,0.021713993458032398,0.9999998323382352,2.1557976602826447,0.17750330845164602,1.352633771162721
0.009429567835772219,0.02158310240437304,0.9999997797729294,2.609072365477337,0.21191869207901204,1.3419494364738458
0.011786959794715272,0.021455543291311278,0.9999997227470707,2.978990600165722,0.24489404477025115,1.3317902881687502
0.014144351753658326,0.02133103584106573,0.999999663632046,3.2937277791490733,0.2764896209606742,1.3220233853706636
0.01650174371260138,0.02120942595231713,0.9999996041803046,3.571217435667257,0.3067631539832715,1.3125764895614012
0.018859135671544434,0.021090528476690316,0.9999995456479451,3.8222108246902113,0.3357699615322616,1.3034021682651677
0.021216527630487488,0.02097413974509328,0.9999994889060912,4.0533274379929045,0.36356304671890344,1.2944654897184213
0.02357391958943054,0.020860057608221107,0.9999994345337839,4.268776102845938,0.3901931949035287,1.2857391570558647
0.025931311548373595,0.020748087727777052,0.9999993828921304,4.471177756855495,0.41570906647976175,1.2772010176417272
0.02828870350731665,0.020638050208630243,0.9999993341818747,4.662410974814375,0.4401572857795074,1.2688322708799142
0.030646095466259703,0.020529782790250504,0.9999992884871687,4.843872786671096,0.4635825262603341,1.2606168788249976
0.03300348742520276,0.020423138007863644,0.9999992458085734,5.016514314111912,0.4860275921302277,1.2525410841281308
0.03536087938414582,0.020317983259037418,0.9999992060877172,5.1811232593403655,0.5075334965583348,1.2445927823772065
0.037718271343088874,0.020214200070490747,0.9999991692255458,5.338349125074703,0.5281395366141974,1.2367613506025923
0.04007566330203193,0.020111681111046054,0.9999991350958156,5.488661616479242,0.5478833650721023,1.2290374437437277
0.04243305526097499,0.02001032846448754,0.9999991035549934,5.632434994327507,0.5668010592115114,1.221412683359925
0.044790447219918046,0.019910052744312075,0.99999907444944,5.76999287170287,0.5849271867391199,1.2138794918100337
0.0471478391788611,0.01981077266927546,0.9999990476205718,5.901636987532217,0.6022948689528678,1.206430996305641
0.04950523113780416,0.019712415139334444,0.999999022908517,6.027676487062169,0.6189358412632164,1.1990609750771313
0.05186262309674722,0.019614914034117324,0.9999990001546795,6.148373669972204,0.6348805111822164,1.1917638464846219
0.054220015055690275,0.019518207817218816,0.9999989792035272,6.263889354038383,0.650158013886267,1.1845345682758759
0.05657740701463333,0.019422238469235072,0.9999989599037686,6.374340753915417,0.6647962654540605,1.1773684577725871
0.05893479897357639,0.019326952328403903,0.9999989421090201,6.479889532442669,0.6788220138769653,1.1702611116490829
0.06129219093251945,0.01923230001167704,0.9999989256781245,6.580701244647281,0.692260887935028,1.16320846105546
0.0636495828914625,0.019138235213835737,0.9999989104752579,6.676891370017123,0.7051374440278894,1.1562067623842014
0.06600697485040555,0.01904471443159359,0.9999988963698503,6.768566457819962,0.717475211046181,1.149252510288237
0.0683643668093486,0.01895169724493638,0.9999988832363429,6.855851820251281,0.729296733365382,1.1423424145191499
0.07072175876829165,0.018859146049127813,0.9999988709538408,6.938866102023439,0.740623612040691,1.1354734169946394
0.0730791507272347,0.018767024988141638,0.9999988594057077,7.017679980942491,0.751476544278182,1.128642672731102
0.07543654268617775,0.01867529924266293,0.999998848479109,7.092329471524025,0.7618753612543722,1.121847475183089
0.0777939346451208,0.01858393546829465,0.9999988380644791,7.162872743151202,0.7718390643532975,1.1150852032885703
0.08015132660406385,0.018492902401911707,0.999998828054914,7.229402746267327,0.7813858598873161,1.1083533473694045
0.0825087185630069,0.01840217065065506,0.9999988183455208,7.292007714765104,0.7905331923650758,1.101649550934935
0.08486611052194995,0.018311705956036265,0.999998808832743,7.350428121306235,0.7992977763674375,1.0949716109166587
0.087223502480893,0.0182214776755681,0.9999987994136482,7.404522764647804,0.8076956270895996,1.0883174195980694
0.08958089443983605,0.018131458720304434,0.9999987899851426,7.454312100064681,0.8157420896052306,1.0816849020248254
0.0919382863987791,0.018041622971269242,0.9999987804430847,7.499846038374714,0.8234518669060815,1.075072019297848
0.09429567835772215,0.0179519457381918,0.9999987706812994,7.541201789251526,0.8308390467683126,1.068476805241454
0.0966530703166652,0.017862403394050947,0.9999987605904893,7.578441581023404,0.8379171274946186,1.0618973995079073
0.09901046227560825,0.01777297290342444,0.9999987500570251,7.611602869167458,0.8446990425791953,1.0553320262284156
0.1013678542345513,0.017683631685820607,0.999998738961568,7.640714291679004,0.8511971843406094,1.0487789608217741
0.10372524619349435,0.01759435717058333,0.999998727177479,7.665781062840346,0.8574234265657465,1.0422365176636967
0.1060826381524374,0.017505126259741703,0.9999987145689727,7.6867784752288495,0.8633891462062141,1.0357030195794925
0.10844003011138045,0.017415915646527676,0.9999987009889357,7.7036955196004735,0.8691052441668344,1.0291767595570924
0.1107974220703235,0.01732670250986276,0.9999986862763108,7.71655910162623,0.8745821652241966,1.022656017531707
0.11315481402926655,0.017237464707915467,0.9999986702529525,7.725410696497406,0.8798299171116634,1.0161391072856258
0.1155122059882096,0.017148180427138733,0.9999986527198315,7.730275549013727,0.8848580888056731,1.009624393837968
0.11786959794715265,0.017058827786851367,0.9999986334524672,7.731157033114957,0.8896758680467416,1.0031102723193
0.1202269899060957,0.01696938654391305,0.9999986121979167,7.728145436129753,0.8942920581271446,0.9965951399115632
0.12258438186503876,0.016879828799464563,0.9999985886730369,7.720742239040655,0.898715093976039,0.9900776642071044
0.1249417738239818,0.01679013811556629,0.9999985625526324,7.708868261068305,0.9029530575714644,0.9835567668404189
0.12729916578292486,0.016700300171869558,0.9999985334567949,7.692533841657933,0.9070136927069699,0.9770314039953192
0.1296565577418679,0.016610300335037638,0.9999985009374303,7.671726983320194,0.9109044191398432,0.970500545884455
0.13201394970081096,0.016520123347212895,0.9999984644608594,7.646416532848092,0.9146323461467711,0.9639631498702781
0.134371341659754,0.01642975337884803,0.9999984233849573,7.616571568537909,0.9182042855115691,0.9574181374154663
0.13672873361869706,0.016339174334260173,0.9999983769286981,7.582176470428664,0.9216267639685194,0.9508643953367617
0.1390861255776401,0.016248370061800996,0.9999983241309939,7.543227407380139,0.9249060351237661,0.9443007961319212
0.14144351753658316,0.01615732422980587,0.9999982637941645,7.4997147123087435,0.9280480908761713,0.9377262140103721
0.1438009094955262,0.016066020118655173,0.9999981944048816,7.451616931860534,0.931058672357925,0.9311395186097455
0.14615830145446926,0.015974440303959957,0.9999981140213414,7.398894891348455,0.9339432804140635,0.9245395610161217
0.1485156934134123,0.01588256632542747,0.9999980201085122,7.341490700100713,0.9367071856387785,0.9179251519786799
0.15087308537235536,0.015790378762338395,0.999997909291216,7.2793485692953555,0.9393554379848859,0.9112950385407701
0.1532304773312984,0.015697857827187366,0.999997776972857,7.2124428960761975,0.9418928759608801,0.90464790730324
0.15558786929024146,0.015604983198338772,0.9999976167260679,7.140742299360423,0.9443241354272036,0.897982424305457
0.1579452612491845,0.015511733751784575,0.9999974192784935,7.064201424466755,0.9466536579989624,0.8912972284225865
0.16030265320812756,0.015418087658922348,0.999997170740629,6.982778685534707,0.948885699054613,0.8845909138199524
0.1626600451670706,0.015324022231143476,0.999996849320816,6.896425411318077,0.951024335335397,0.8778620355844393
0.16501743712601366,0.0152295132660606,0.9999964187709126,6.805060791644417,0.9530734720893376,0.8711091009420965
0.1673748290849567,0.0151345357109696,0.9999958140114205,6.708634561775148,0.9550368496420717,0.864330526544319
0.16973222104389976,0.015039064152766388,0.9999949053467824,6.607123367473942,0.9569180490912625,0.8575246797253409
0.1720896130028428,0.01494307171691195,0.9999933917858211,6.500453831825747,0.958720496265432,0.8506899157501153
0.17444700496178586,0.01484653014622741,0.9999903788254456,6.388553730549421,0.9604474610534467,0.8438245098954323
0.1768043969207289,0.014749408895776188,0.9999814932115414,6.271310204788153,0.9621020390956072,0.836926658841526
0.17916178887967196,0.014651697808815553,0.48392021822032716,6.149663723112545,0.963687013516168,0.829994423327292
0.181519180838615,0.014553071775938863,7.006474347396926e-06,6.009201512520184,0.923699169990388,0.8230272219871037
0.18387657279755806,0.014453348032299591,2.8028440928780042e-06,5.841658123174663,0.8467108175063868,0.8160261530446274
0.1862339647565011,0.014352723056181092,1.4730357677712963e-06,5.656927420727202,0.7761390475055413,0.8089913526097516
0.18859135671544416,0.014251070510303611,8.652127193988736e-07,5.451390907130388,0.711449281228166,0.801921221387471
0.19094874867438721,0.014148227893169382,5.398213037104033e-07,5.2207953375052,0.6521513173800023,0.7948134191955885
0.19330614063333026,0.014044000714037507,3.49922311588841e-07,4.960874149766604,0.5977957760135106,0.7876645176636409
0.19566353259227331,0.013938143732984742,2.3302733557808366e-07,4.666716164824715,0.5479707204821799,0.7804702654139374
0.19802092455121637,0.01383035200281908,1.5844978192050794e-07,4.333754881469137,0.5022985436027729,0.7732240568566963
0.20037831651015942,0.013720258018851971,1.0963061364769353e-07,3.9590135228155834,0.46043310896585604,0.7659154567311032
0.20273570846910247,0.013607419752642394,7.70347948789711e-08,3.542143864149701,0.42205712904325277,0.7585284228129423
0.20509310042804552,0.013491310488949939,5.491279612799832e-08,3.0872235183044876,0.3868797612365927,0.7510378818613054
0.20745049238698857,0.013371274144119913,3.968005059592923e-08,2.6033915288604956,0.3546344040238416,0.7434053321972798
0.20980788434593162,0.013246424340902273,2.904582902825035e-08,2.1048061939714966,0.32507667666062395,0.7355710134980453
0.21216527630487467,0.013115451874623867,2.15161188252855e-08,1.6095087292444625,0.297982567199616,0.7274415363085799
0.21452266826381772,0.01297626260248818,1.609100702559854e-08,1.1366913587946386,0.2731467348299741,0.7188716738164476
0.21688006022276077,0.012825325622046274,1.2065659223318138e-08,0.7036759338692486,0.2503809536905279,0.7096384531136585
0.21923745218170382,0.01265592915579254,8.914505070304107e-09,0.319799585811981,0.22951268637361857,0.6994179579619881
0.22159484414064687,0.01248088494580077,6.223176232427216e-09,0.17799917466264392,0.21038377631688135,0.6877763831264196
0.22395223609958992,0.012330506689148386,3.786433730753071e-09,0.18003146604165127,0.19284924917771212,0.6767966692192635
0.22630962805853297,0.012214398472537729,1.721719104965905e-09,0.14764891871862768,0.17677621412061434,0.6686451838531191
0.22866702001747602,0.01212751564457274,1.424450914832505e-10,0.10541380428293343,0.162042856691048,0.6627758517818817
0.23102441197641907,0.012062030146016063,-1.0595938254885168e-09,0.0696200760395671,0.14853751560540668,0.6584758326284986
0.23338180393536212,0.012011236899177324,-2.0118390806804226e-09,0.04413670870365535,0.1361578364718585,0.6551918751900673
0.23573919589430517,0.01201477930343984,2.65569006446442e-08,0.3378173491653451,0.12480999606491418,0.6525624805670883
0.23623894679250498,0.012044369251131434,2.6104947794409425e-08,0.7368968770920366,0.12252860536675088,0.6525624805645398
0.2367386976907048,0.012089065347522352,2.5878949754195833e-08,0.7390233434431802,0.12028891934613756,0.6558107362941248
0.2372384485889046,0.012135792288273804,2.5668526865422533e-08,0.7415012471778659,0.11809017562990778,0.6592054456371312
0.23773819948710442,0.01218450084373895,2.54731175080342e-08,0.7442886958996607,0.1159316257775191,0.6627432170420139
0.23823795038530424,0.012235144415106158,2.5292240373286056e-08,0.7473477501029843,0.11381253503019556,0.6664208323899422
0.23873770128350405,0.012287678801045766,2.5125484267451127e-08,0.7506440882053431,0.11173218206082118,0.6702352313174277
0.23923745218170386,0.01234206198435338,2.497249967880302e-08,0.7541466880817389,0.10968985872840496,0.6741834969955576
0.23973720307990368,0.012398253938540186,2.4832991803989226e-08,0.7578275113392163,0.10768486983703518,0.678262843405404
0.2402369539781035,0.012456216451971269,2.4706714786519e-08,0.7616612095046883,0.10571653289923916,0.6824706038332166
0.2407367048763033,0.01251591296849361,2.4593466966742195e-08,0.7656248538366258,0.10378417790366916,0.686804220488953
0.24123645577450312,0.012577308443446808,2.4493086980019864e-08,0.7696976911411233,0.10188714708703485,0.6912612351479739
0.24173620667270293,0.012640369213801983,2.4405450569881097e-08,0.7738609192267036,0.10002479471020495,0.6958392807461046
0.24223595757090274,0.01270506288073296,2.4330468007446873e-08,0.778097483432435,0.09819648683840197,0.7005360737929116
0.24273570846910256,0.012771358203485123,2.4268082028706035e-08,0.7823918956068119,0.09640160112541418,0.7053494075108423
0.24323545936730237,0.012839225003640362,2.4218266217692276e-08,0.786730071004557,0.09463952660175363,0.7102771456521169
0.24373521026550218,0.012908634078690247,2.418102377710068e-08,0.7910991824052866,0.09290966346668503,0.7153172169154289
0.244234961163702,0.012979557123999072,2.4156386639137795e-08,0.7954875293311963,0.09121142288405794,0.7204676099037814
0.2447347120619018,0.013051966662261456,2.414441487874383e-08,0.7998844207857806,0.08954422678187027,0.7257263685644798
0.24523446296010162,0.013125835979682433,2.414519639921776e-08,0.8042800709129736,0.08790750765549618,0.7310915880573646
0.24573421385830144,0.013201139068257057,2.415884686696342e-08,0.8086655060014222,0.08630070837451066,0.7365614110127444
0.24623396475650125,0.013277850573527067,2.4185509877752633e-08,0.8130324810937053,0.08472328199304625,0.7421340241413693
0.24673371565470106,0.013355945747225612,2.4225357341858512e-08,0.8173734057299294,0.08317469156361545,0.7478076551557994
0.24723346655290088,0.013435400404330125,2.4278590079792006e-08,0.8216812776001952,0.08165440995433731,0.75358056997383
0.2477332174511007,0.013516190884070996,2.4345438624285726e-08,0.8259496233807622,0.08016191966950506,0.7594510701745102
0.2482329683493005,0.013598294014505744,2.44261642277626e-08,0.8301724459936108,0.07869671267343362,0.7654174906819738
0.24873271924750032,0.013681687080304272,2.4521060077881686e-08,0.8343441775008712,0.07725829021752713,0.7714781976550437
0.24923247014570013,0.013766347793418069,2.4630452726972097e-08,0.8384596370483585,0.07584616267050853,0.7776315865616591
0.24973222104389994,0.013852254266342547,2.4754703744335298e-08,0.84251399330883,0.07445984935175173,0.7838760804196557
0.25023197194209973,0.013939384987714774,2.4894211603588203e-08,0.8465027309972746,0.07309887836766112,0.7902101281872964
0.25073172284029954,0.014027718800019535,2.5049413820510183e-08,0.8504216209709955,0.07176278645104209,0.7966322032894028
0.25123147373849936,0.014117234879194113,2.5220789360317612e-08,0.8542666935281561,0.07045111880340757,0.803140802265768
0.25173122463669917,0.014207912715945317,2.5408861337004692e-08,0.8580342145816293,0.06916342894016798,0.8097344435299028
0.252230975534899,0.014299732098612588,2.561420003143767e-08,0.8617206643868476,0.0678992785386507,0.8164116662276295
0.2527307264330988,0.01439267309742983,2.5837426259361503e-08,0.8653227185969303,0.06665823728889779,0.8231710291859716
0.2532304773312986,0.014486716050055169,2.607921512547294e-08,0.8688372313428714,0.06543988274719162,0.8300111099442959
0.2537302282294984,0.014581841548244599,2.6340300205342517e-08,0.8722612201071716,0.06424380019225823,0.8369305038598278
0.25422997912769824,0.014678030425560535,2.6621478203371602e-08,0.8755918522805287,0.0630695824840987,0.8439278232802367
0.25472973002589805,0.014775263746023783,2.6923614142293034e-08,0.8788264331713975,0.061916829925402345,0.8510016967777397
0.25522948092409786,0.014873522793621124,2.7247647148144977e-08,0.881962395324474,0.06078515012549223,0.858150768439065
0.2557292318222977,0.014972789062590985,2.7594596904384357e-08,0.8849972890152296,0.059674157866758754,0.8653736972063043
0.2562289827204975,0.015073044248418545,2.7965570860112204e-08,0.8879287738055773,0.05858347497353483,0.8726691562642377
0.2567287336186973,0.015174270239478878,2.8361772290561275e-08,0.8907546110358052,0.05751273018336798,0.8800358324702727
0.2572284845168971,0.015276449109270252,2.878450932341583e-08,0.8934726571403055,0.056461559020645924,0.8874724258233357
0.25772823541509693,0.015379563109189628,2.923520506264747e-08,0.8960808577974743,0.05542960367253256,0.894977648968251
0.25822798631329674,0.0154835946618075,2.9715408962886173e-08,0.8985772426386808,0.05441651286717169,0.9025502267336927
0.25872773721149656,0.015588526354590593,3.02268096325827e-08,0.9009599206134735,0.05342194175411828,0.910188895699613
0.25922748810969637,0.015694340934047386,3.077124927417863e-08,0.9032270759990672,0.05244555178695465,0.9178924037924301
0.2597272390078962,0.01580102130026813,3.1350740005159844e-08,0.9053769647701974,0.051487010608053545,0.9256595099071231
0.260226989906096,0.015908550501818542,3.196748234649725e-08,0.9074079114676088,0.05054599193544797,0.9334889835527321
0.2607267408042958,0.016016911730967514,3.262388621612706e-08,0.9093183064507827,0.04962217545176899,0.9413796045203402
0.2612264917024956,0.01612608831922041,3.3322594826704186e-08,0.9111066034347595,0.0487152466952141,0.9493301625718986
0.26172624260069544,0.016236063733138885,3.4066511961336116e-08,0.9127713175196026,0.04782489695251047,0.9573394571476928
0.26222599349889525,0.01634682157044272,3.4858833191405336e-08,0.9143110233929505,0.04695082315383362,0.9654062970934427
0.26272574439709506,0.016458345556358344,3.570308171079285e-08,0.9157243536871216,0.04609272776964876,0.9735295004045639
0.2632254952952949,0.016570619540192462,3.660314959581513e-08,0.9170099976552499,0.04525031870943797,0.9817078939853553
0.2637252461934947,0.01668362749213616,3.7563345466301905e-08,0.9181667001954118,0.044423309222279724,0.9899403134234214
0.2642249970916945,0.016797353500016772,3.858844970395066e-08,0.9191932558897079,0.04361141779924674,0.99822560278036
0.2647247479898943,0.016911781762107433,3.968377829036297e-08,0.9200884443140412,0.04281436807758893,1.0065626143330961
0.26522449888809413,0.017026896581686338,4.085525746838793e-08,0.9208510774173948,0.04203188874666905,1.0149502079876687
0.26572424978629394,0.017142682374476085,4.210951210877348e-08,0.9214801158425193,0.04126371345561919,1.0233872513530449
0.26622400068449376,0.01725912366421239,4.345396930207638e-08,0.9219745753550844,0.040509580722687594,1.031872619800811
0.26672375158269357,0.017376205080453698,4.489698071727118e-08,0.9223335237204875,0.03976923384624362,1.0404051963208572
0.2672235024808934,0.017493911356695473,4.644796796536939e-08,0.9225560806158202,0.03904242081741211,1.0489838713868571
0.2677232533790932,0.017612227328543523,4.811759615719466e-08,0.922641415602395,0.0383288942343081,1.057607542833816
0.268223004277293,0.017731137932056253,4.991798222453392e-08,0.922588752465786,0.03762841121784136,1.0662751157220551
0.2687227551754928,0.017850628202608954,5.186294638016405e-08,0.9223973667693637,0.03694073332906535,1.0749855022666492
0.26922250607369264,0.01797068327347351,5.396831747648394e-08,0.9220665834633751,0.036265626488039854,1.0837376217458126
0.26972225697189245,0.018091288374451307,5.625230620043266e-08,0.9215957806195857,0.035602860894184137,1.0925304003882759
