Time [s],Lmtc [m],STIM [ ],Fsee [N],Gamma [ ],Lcerel [ ]
0.0,0.020718803702329616,0.9999998143167588,1.8220983322380124,0.09982104324327326,1.2810159827237608
0.0021849722778646383,0.020709615950172244,0.9999997639549438,2.8694448870302445,0.13478621282195824,1.2776690816081528
0.004369944555729277,0.020668019574006404,0.999999686552177,3.7065695233060296,0.16839324679042705,1.2728374921074233
0.006554916833593915,0.020609218791094033,0.9999995874767188,4.3175715544206374,0.20069489744407465,1.2673639725020531
0.008739889111458553,0.02054109725821751,0.9999994716392671,4.75911241706491,0.2317418682572029,1.261592069669299
0.010924861389323191,0.020467951472754566,0.9999993435980336,5.090511901982995,0.2615828934465252,1.2556794683625687
0.013109833667187829,0.02039210248894446,0.9999992073829754,5.35229768510002,0.2902648144483108,1.2497051362233045
0.015294805945052467,0.020314828344868772,0.9999990664047148,5.569274303612013,0.3178326534181386,1.2437114160286964
0.017479778222917106,0.020236854603562778,0.9999989234507506,5.756325290450429,0.3443296838722025,1.2377221332909654
0.019664750500781744,0.020158605910398298,0.9999987807336989,5.922497262588963,0.36979749858458555,1.2317510854445648
0.021849722778646382,0.020080336970802484,0.9999986399632509,6.073429201097948,0.3942760748491109,1.2258063314796201
0.02403469505651102,0.020002202936593796,0.9999985024242674,6.212740359159804,0.41780383720905473,1.2198925005087053
0.026219667334375658,0.019924298637210666,0.9999983690514231,6.342824178388341,0.44041771775331723,1.2140121010215266
0.028404639612240296,0.019846681253448017,0.9999982404959011,6.4653102430206735,0.46215321407343807,1.208166296400197
0.030589611890104933,0.019769383872948458,0.999998117182599,6.58133934474926,0.4830444449720111,1.2023553811583583
0.03277458416796957,0.019692423846396953,0.9999979993579071,6.691731381678029,0.5031242040094658,1.1965790822729636
0.03495955644583421,0.0196158080807018,0.9999978871288857,6.797090403946663,0.5224240109728185,1.1908367546077314
0.037144528723698854,0.019539536472857437,0.9999977804949701,6.897871911385546,0.5409741613467683,1.1851275102284347
0.039329501001563495,0.019463604184111777,0.9999976793733727,6.994426943788045,0.5588037738644476,1.1794503053597098
0.04151447327942814,0.019388003172920304,0.9999975836192755,7.087031579177239,0.5759408362121684,1.1738039995821794
0.04369944555729278,0.019312723243674633,0.9999974930417719,7.175907060117128,0.5924122489596685,1.168187396480584
0.04588441783515742,0.01923775277285017,0.9999974074163702,7.261233779470203,0.6082438677846183,1.162599271689053
0.04806939011302206,0.01916307921648857,0.9999973264947359,7.343161167032399,0.6234605440575064,1.1570383922507257
0.0502543623908867,0.019088689467153544,0.9999972500122216,7.421814791625119,0.6380861638504911,1.1515035299189633
0.05243933466875134,0.01901457010584829,0.9999971776936321,7.497301540497879,0.6521436854313378,1.145993470190355
0.054624306946615984,0.018940707579758506,0.9999971092575796,7.569713450664219,0.6656551753012282,1.140507018306529
0.056809279224480626,0.01886708832707211,0.999997044419717,7.639130581371611,0.6786418428329386,1.1350430030901224
0.05899425150234527,0.018793698863702864,0.9999969828950707,7.705623195239768,0.6911240735637125,1.129600279226815
0.06117922378020991,0.018720525842386426,0.9999969243996537,7.769253434537312,0.7031214611950442,1.1241777284301446
0.06336419605807454,0.01864755609161948,0.9999968686514992,7.830076624271163,0.7146528383495778,1.1187742598032941
0.06554916833593918,0.01857477663982308,0.9999968153712208,7.888142296219147,0.7257363061333688,1.1133888096253417
0.06773414061380383,0.018502174728639135,0.9999967642821855,7.943495001981986,0.7363892625498979,1.1080203407275677
0.06991911289166847,0.018429737810388924,0.9999967151103626,7.996174549965854,0.746628429810422,1.1026678415807838
0.07210408516953311,0.01835745037924016,0.9999966675838939,8.046048143506026,0.7564698805835142,1.0973303251822368
0.07428905744739775,0.01828529778719717,0.999996621432421,8.0930120088202,0.7659290632249944,1.0920068278069246
0.07647402972526239,0.018213268217581867,0.9999965763861876,8.137098437372718,0.7750208260278377,1.086696407670694
0.07865900200312703,0.018141350037167818,0.9999965321749305,8.178336780346891,0.7837594405301224,1.081398143539573
0.08084397428099167,0.01806953178455681,0.9999964885265586,8.216753700298279,0.7921586239175981,1.0761111333101407
0.08302894655885631,0.017997802157260018,0.9999964451656131,8.252373382901467,0.8002315605560278,1.0708344925785716
0.08521391883672096,0.017926149997840132,0.9999964018114911,8.28521771603856,0.8079909226871064,1.0655673532105772
0.0873988911145856,0.017854564279376237,0.999996358176407,8.315306441917729,0.815448890320422,1.0603088619204015
0.08958386339245024,0.01778303409044085,0.9999963139630543,8.342657286716538,0.8226171703526938,1.0550581788639624
0.09176883567031488,0.01771154861972309,0.9999962688619182,8.367286071324155,0.8295070149442715,1.0498144762488906
0.09395380794817952,0.01764009714038922,0.9999962225481749,8.389206806040978,0.8361292391817493,1.04457693696245
0.09613878022604416,0.017568668994238475,0.9999961746780976,8.408431771533644,0.8424942380543954,1.0393447532169575
0.0983237525039088,0.017497253575686017,0.9999961248848641,8.424971587901174,0.8486120027710385,1.0341171252112735
0.10050872478177345,0.01742584031558427,0.9999960727736366,8.438835273356059,0.8544921364429992,1.0288932598061145
0.10269369705963809,0.017354418664877046,0.9999960179157457,8.45003029374206,0.8601438691576702,1.0236723692102885
0.10487866933750273,0.017282978078067637,0.9999959598417689,8.458562603882605,0.8655760724663748,1.0184536696744333
0.10706364161536737,0.017211507996470414,0.9999958980332285,8.464436681567534,0.8707972733092089,1.0132363801883926
0.10924861389323201,0.01713999783120584,0.9999958319125598,8.467655554833232,0.8758156673986911,1.0080197211779793
0.11143358617109665,0.017068437072957084,0.9999957608309953,8.468227751214101,0.8806391320831631,1.00280291319654
0.1136185584489613,0.016996816259658966,0.9999956840578494,8.46621552499241,0.8852752387100762,0.9975851829638155
0.11580353072682593,0.016925121505318774,0.9999956007717417,8.461347577962655,0.8897312645086439,0.9923658823939128
0.11798850300469058,0.016853344492191204,0.9999955100332011,8.45355172080325,0.8940142040105961,0.9871445050951063
0.12017347528255522,0.016781478215111813,0.999995410752608,8.442824752830077,0.8981307800262615,0.9819205501716923
0.12235844756041986,0.016709515568099874,0.9999953016550186,8.429162419758011,0.9020874541930672,0.9766935128625092
0.1245434198382845,0.016637449336333585,0.999995181235199,8.412559411935566,0.9058904371129417,0.971462883992475
0.12672839211614914,0.016565272187675326,0.9999950476992717,8.393009359868632,0.9095456980942093,0.9662281494044641
0.12891336439401377,0.016492976663723728,0.9999948988880515,8.370504827100453,0.91305897451282,0.9609887893700855
0.1310983366718784,0.0164205551703647,0.9999947321749671,8.345037300487684,0.9164357808069862,0.9557442779777231
0.13328330894974302,0.016347999967789163,0.9999945443281305,8.316597177887468,0.9196814171184816,0.9504940824960028
0.13546828122760765,0.016275303159940267,0.9999943313209161,8.285173753247506,0.9228009775929322,0.9452376627106245
0.13765325350547228,0.016202456683348132,0.9999940880671014,8.250755199069319,0.9257993583503491,0.9399744702322933
0.1398382257833369,0.01612945229530449,0.9999938080429858,8.213328546193962,0.9286812651357736,0.9347039477732323
0.14202319806120153,0.01605628156132436,0.9999934827358695,8.172879660838847,0.9314512206580785,0.9294255283895253
0.14420817033906616,0.015982935841834987,0.9999931008180436,8.129393218793382,0.9341135716222896,0.9241386346862416
0.1463931426169308,0.015909406278026242,0.9999926468724403,8.082852676659959,0.9366724954566662,0.9188426779820317
0.14857811489479542,0.015835683776788373,0.9999920993577457,8.033240240003922,0.9391320067289946,0.913537057429524
0.15076308717266004,0.015761758994655196,0.9999914272248815,7.9805368282514,0.9414959632346097,0.9082211590875292
0.15294805945052467,0.015687622320661,0.9999905840125097,7.924722036145325,0.9437680717165245,0.9028943549406384
0.1551330317283893,0.015613263858009221,0.9999894969193956,7.8657740915350045,0.9459518931340323,0.8975560018613984
0.15731800400625393,0.015538673404438522,0.9999880450442544,7.803669809226804,0.9480508473022082,0.8922054405097384
0.15950297628411855,0.015463840431158513,0.9999860117855379,7.738384540548486,0.9500682165059968,0.8868419941638434
0.16168794856198318,0.015388754060210747,0.999982966768351,7.669892118139475,0.952007147125021,0.8814649674761001
0.1638729208398478,0.015313403040090537,0.9999779156969377,7.598164795171712,0.9538706466090799,0.876073645147254
0.16605789311771244,0.015237775719441371,0.9999679266988797,7.523173177546732,0.9556615669706672,0.8706672905117433
0.16824286539557706,0.01516186001868691,0.9999389268031759,7.4448861497569565,0.9573825355630211,0.8652451440287918
0.1704278376734417,0.015085715326117504,0.0678169978472907,7.366928148057753,0.9590355310629533,0.8598064216908311
0.17261280995130632,0.01500881177700715,2.1316432341715045e-05,7.2601633411703705,0.8899703488926933,0.8543545275424069
0.17479778222917094,0.01493152633451162,8.573745531776812e-06,7.1406110765223065,0.8210036005391493,0.8488945387600653
0.17698275450703557,0.014853874097166132,4.573282903424868e-06,7.007898417480226,0.7573805143815293,0.8434286022724584
0.1791677267849002,0.014775828103178946,2.734597254449544e-06,6.859407149261148,0.6986876552566392,0.8379592354260291
0.18135269906276483,0.014697359615297216,1.739930176442411e-06,6.692023181928492,0.6445431176345755,0.8324898522018926
0.18353767134062945,0.014618440186015892,1.1517403297169429e-06,6.502172523528216,0.5945944900305431,0.8270249948324411
0.18572264361849408,0.014539045941103588,7.842430464293987e-07,6.28596193338088,0.5485166375458898,0.8215706162549947
0.1879076158963587,0.014459165391620394,5.460185774912148e-07,6.0394799473398315,0.506009607550722,0.8161344221177972
0.19009258817422334,0.01437881237864434,3.8748570875284286e-07,5.75931233275096,0.4667966854707037,0.8107262822301813
0.19227756045208796,0.01429804570958245,2.7987160105643623e-07,5.443295887548457,0.4306225971721281,0.8053587229353204
0.1944625327299526,0.014216996270988493,2.0564694423609092e-07,5.091458787006048,0.39725184902528304,0.8000475138796295
0.19664750500781722,0.0141359005555458,1.537442802298983e-07,4.706972234499733,0.36646719586509896,0.7948123647146761
0.19883247728568185,0.014055136749266884,1.1698741697414716e-07,4.296804976565238,0.3380682273082177,0.7896777491557292
0.20101744956354647,0.01397525703701806,9.06282937914984e-08,3.8717229749445163,0.3118700634256776,0.7846738804098706
0.2032024218414111,0.013897010470864972,7.147518913647654e-08,3.445426161353566,0.2877021513824117,0.7798379075243527
0.20538739411927573,0.013821358437288328,5.735391912021144e-08,3.0329734928468812,0.26540715526485487,0.7752156278386728
0.20757236639714036,0.013749499419877447,4.6767536172914394e-08,2.6489205638721276,0.24483993190075856,0.7708647661703963
0.20975733867500498,0.013682924672035284,3.86851682097611e-08,2.305208150780849,0.2258665860225395,0.7668622431933311
0.2119423109528696,0.013623478359588334,3.241780752840922e-08,2.008076719806036,0.20836359863535997,0.7633167987777277
0.21412728323073424,0.013573260889403395,2.7526218063751727e-08,1.7549276263819915,0.19221702292360185,0.7603748303618902
0.21631225550859887,0.013534084843828119,2.370291188991731e-08,1.5366067917835569,0.17732174246426718,0.7581817104463789
0.2184972277864635,0.013515757369647757,1.1701600762089e-07,1.5556680125853894,0.16358078691675237,0.7567861904971152
0.21904347085592965,0.013512189220876407,1.1448026054773247e-07,1.4733999115662422,0.1603152735194183,0.7567861904971126
0.2195897139253958,0.013508697182082136,1.1199514682570019e-07,1.3950469387438476,0.15711495255220712,0.7567862019048712
0.22013595699486196,0.01350528304927809,1.095596487635557e-07,1.3205107446814948,0.15397852251902072,0.7567862157312623
0.22068220006432812,0.013501947542208095,1.0717277728994737e-07,1.249666086341292,0.15090470790671784,0.7567862330481181
0.22122844313379428,0.013498691391788158,1.0483356460443787e-07,1.1823892775004778,0.14789225866639233,0.7567862558273402
0.22177468620326043,0.01349551601125518,1.0254106720535006e-07,1.1185712093662246,0.14493994970500754,0.7567862883384232
0.2223209292727266,0.013492430575392783,1.0029439422813846e-07,1.058250588329184,0.14204658038717957,0.7567863429626044
0.22286717234219275,0.013490059433392609,9.809473611636094e-08,1.0130022473398117,0.13921097404690735,0.7567864944064551
0.2234134154116589,0.01348869573536979,9.59456809063322e-08,0.9862503986611775,0.1364319775090914,0.7567911879272098
0.22395965848112506,0.013487678309255976,9.384885348340385e-08,0.9634189151084468,0.13370846062061065,0.7568069888216303
0.22450590155059122,0.013487052734307583,9.180408364857095e-08,0.944711211199265,0.13103931579067432,0.756835900726034
0.22505214462005738,0.013486909649170894,8.981259420031647e-08,0.9308584687141057,0.12842345754035306,0.7568811211783861
0.22559838768952353,0.01348740186414432,8.787845306956609e-08,0.9231103454575871,0.12585982206116741,0.7569483053672192
0.2261446307589897,0.01348879014482139,8.601257821185191e-08,0.9233606288747763,0.12334736678251702,0.7570484834105018
0.22669087382845585,0.013491445828828177,8.424401763677386e-08,0.9321930292891426,0.12088506994782586,0.7572063828009193
0.227237116897922,0.013495671094350455,8.263018180987772e-08,0.9398029417178348,0.11847193019937463,0.7574837612681181
0.22778335996738816,0.013502433505077143,8.122253387688149e-08,0.9360460075855522,0.11610696617162557,0.7579917627488589
0.22832960303685432,0.01351298988869475,8.002840973288889e-08,0.9258530039200019,0.11378921609198109,0.7588023122435001
0.22887584610632047,0.013527755311272238,7.902700157401506e-08,0.9139369415198016,0.1115177373887508,0.7599268925630924
0.22942208917578663,0.013546728623956908,7.819376536067895e-08,0.9022080502612612,0.10929160630726431,0.7613577342769636
0.2299683322452528,0.01356978504178698,7.750706291850585e-08,0.8913743844981722,0.10710991753413446,0.7630828149335386
0.23051457531471894,0.013596765746831989,7.694893238194644e-08,0.8816734211918412,0.10497178382915553,0.7650895126549411
0.2310608183841851,0.013627506230167829,7.650469643840712e-08,0.8731475678487917,0.10287633566456424,0.7673655867202325
0.23160706145365126,0.013661846133105233,7.616241221362204e-08,0.865755194483918,0.10082272087149574,0.769899454118638
0.23215330452311742,0.01369963274264629,7.591237392217274e-08,0.8594191573457427,0.09881010429348647,0.7726802487747367
0.23269954759258357,0.0137407220593658,7.574670354862319e-08,0.8540493342173107,0.09683766744688393,0.7756978063399583
0.23324579066204973,0.013784978867802035,7.565902359492236e-08,0.8495534602738227,0.09490460818802895,0.778942622922923
0.23379203373151589,0.013832276386293705,7.564419777915588e-08,0.8458423565976059,0.09301014038707468,0.7824058059071982
0.23433827680098204,0.013882495747258092,7.569812594231792e-08,0.842832345150587,0.09115349360831303,0.7860790241084915
0.2348845198704482,0.013935525422907585,7.581758172102175e-08,0.8404462098882012,0.08933391279687858,0.7899544602146166
0.23543076293991436,0.01399126065050667,7.600008394250673e-08,0.8386133977253819,0.08755065797170383,0.7940247666279061
0.2359770060093805,0.014049602882458039,7.624379473272785e-08,0.8372698262959897,0.08580300392460204,0.7982830250230942
0.23652324907884667,0.014110459272304806,7.654743894299795e-08,0.8363574976277435,0.08409023992535523,0.8027227095710305
0.23706949214831283,0.01417374220055256,7.691024075095333e-08,0.8358240273921165,0.08241166943268824,0.8073376536196777
0.23761573521777898,0.014239368840550914,7.733187425247461e-08,0.8356221502551907,0.08076660981101165,0.8121220195617016
0.23816197828724514,0.014307260762836279,7.781242560027436e-08,0.8357092342528539,0.07915439205281863,0.8170702716025989
0.2387082213567113,0.014377343575470195,7.835236481670278e-08,0.8360468213642989,0.07757436050662307,0.8221771511503894
0.23925446442617745,0.014449546597564273,7.895252585501286e-08,0.8366002024016552,0.07602587261032863,0.8274376545653096
0.2398007074956436,0.014523802563121871,7.961409383680654e-08,0.8373380291346333,0.07450829862992024,0.8328470130294443
0.24034695056510977,0.014600047352416046,8.033859867782885e-08,0.8382319636273958,0.07302102140337231,0.8384006743186854
0.24089319363457593,0.014678219748288108,8.11279145480753e-08,0.8392563631575326,0.07156343608966922,0.8440942862812059
0.24143943670404208,0.014758261214949744,8.198426480951375e-08,0.8403879982717143,0.07013494992283642,0.8499236818470409
0.24198567977350824,0.014840115697080032,8.291023224673448e-08,0.8416058011863067,0.0687349819708822,0.8558848654120397
0.2425319228429744,0.014923729437213908,8.390877456158249e-08,0.8428906416685435,0.06736296289955195,0.8619740004563664
0.24307816591244055,0.015009050809613353,8.498324524988941e-08,0.8442251276170292,0.06601833474079932,0.868187398272865
0.2436244089819067,0.015096030168993819,8.613742012357799e-08,0.8455934277267361,0.0647005506658799,0.8745215076941621
0.24417065205137287,0.01518461971264422,8.737552989099536e-08,0.8469811138301907,0.06340907476297546,0.8809729057194111
0.24471689512083902,0.015274773354629642,8.870229936871428e-08,0.8483750207264732,0.06214338181925812,0.8875382889522924
0.24526313819030518,0.015366446610901837,9.012299407599374e-08,0.8497631215279461,0.06090295710730652,0.8942144657713772
0.24580938125977134,0.015459596494264897,9.164347516622141e-08,0.8511344167626443,0.05968729617578659,0.9009983491623922
0.2463556243292375,0.015554181418252992,9.327026388688615e-08,0.852478835663185,0.05849590464431234,0.9078869501493935
0.24690186739870365,0.01565016110907503,9.5010617041748e-08,0.8537871482495302,0.05732829800240351,0.9148773717684905
0.2474481104681698,0.015747496524868544,9.687261526929728e-08,0.8550508869719838,0.056184001412457774,0.9219668035336464
0.24799435353763596,0.01584614978158319,9.886526636727247e-08,0.8562622768234005,0.055062549516658926,0.9291525163493031
0.24854059660710212,0.015946084084883932,1.0099862640568974e-07,0.8574141729565801,0.05396348624774141,0.9364318578292347
0.24908683967656828,0.01604726366752611,1.0328394200875042e-07,0.8585000049552863,0.05288636464353535,0.9438022479851579
0.24963308274603443,0.01614965373170984,1.057338179861298e-07,0.8595137270069746,0.05183074666521683,0.951261175252299
0.2501793258155006,0.016253220395970866,1.0836241550546441e-07,0.8604497733131287,0.050796203019190016,0.9588061928224075
0.2507255688849668,0.01635793064620901,1.1118568728567438e-07,0.8613030181505957,0.04978231298252905,0.9664349152576154
0.25127181195443293,0.016463752290494623,1.1422165794303393e-07,0.8620687400654156,0.048788664231909536,0.9741450153611491
0.2518180550238991,0.01657065391732893,1.1749075975812815e-07,0.8627425897407475,0.04781485267596092,0.9819342212832319
0.25236429809336525,0.016678604857065328,1.2101623691579703e-07,0.863320561133283,0.04686048229097243,0.9898003138425917
0.2529105411628314,0.016787575145959844,1.2482463485867529e-07,0.8637989608645739,0.04592516495988685,0.9977411240458532
0.25345678423229756,0.01689753548845055,1.28946394963648e-07,0.8641743183419819,0.045008520314518664,1.0057545307248632
0.2540030273017637,0.017008457221603417,1.334165837116543e-07,0.8644433955095674,0.04411017558093396,1.0138384579138895
0.2545492703712299,0.017120312299111227,1.3827579654638373e-07,0.8646033257066144,0.0432297654279316,1.0219908731113703
0.25509551344069603,0.01723307326293627,1.4357128089391582e-07,0.8646514845726413,0.04236693181856736,1.0302097857615364
0.2556417565101622,0.01734671321867613,1.4935834423404035e-07,0.8645854686254026,0.0415213238646647,1.0384932455558136
