Time [s],Lmtc [m],STIM [ ],Fsee [N],Gamma [ ],Lcerel [ ]
0.0,0.020678953897877387,0.9999998364522915,0.9586730349974275,0.06890179610186777,1.2809958256574052
0.0023296191672873747,0.02071912248307267,0.9999998154455895,2.0673829333833456,0.10741198622024786,1.2803546249706808
0.004659238334574749,0.020700044436195515,0.9999997568355017,3.1449616031656693,0.1443293950334962,1.2763531758047613
0.006988857501862124,0.020649961066736264,0.9999996707905418,3.9647240227719345,0.17971989837865707,1.2710083524400613
0.009318476669149499,0.02058377859019518,0.9999995632732414,4.542690574414639,0.21364664789047674,1.2650935259605487
0.011648095836436874,0.020509238308856446,0.9999994397975499,4.956122545722351,0.24617018350038014,1.258922122629586
0.013977715003724248,0.020430364867744955,0.9999993053375871,5.26794771383902,0.2773485414378976,1.2526364710489102
0.01630733417101162,0.020349260259494014,0.9999991641512892,5.517161942482131,0.30723735776138106,1.2463072552909817
0.018636953338298998,0.020267055989947432,0.9999990197289209,5.726458240490594,0.335889967599399,1.239971994649114
0.020966572505586374,0.020184383516520604,0.999998874833018,5.909069318882015,0.36335750028538066,1.233651485066952
0.02329619167287375,0.020101606506303823,0.9999987315837526,6.072905270812555,0.38968897055914525,1.227357488859752
0.025625810840161127,0.020018939034975626,0.9999985915591528,6.22285010031435,0.4149313659998701,1.2210966174478195
0.027955430007448503,0.01993650822733185,0.999998455893291,6.362023725882852,0.43912973084697654,1.2148724199600158
0.03028504917473588,0.019854388868429454,0.9999983253644501,6.492486696945782,0.4623272463582497,1.2086865667177966
0.032614668342023256,0.01977262329319086,0.9999982004704284,6.61564383386613,0.4845653078479942,1.2025395491010171
0.03494428750931063,0.019691233228707822,0.99999808149086,6.73248202295909,0.505883598542007,1.1964311081781422
0.03727390667659801,0.019610227069511127,0.9999979685377121,6.843714307448797,0.5263201603804903,1.1903605048430144
0.039603525843885386,0.019529604470606476,0.9999978615955982,6.949869586177719,0.5459114618946451,1.1843266940504422
0.04193314501117276,0.019449359315851494,0.9999977605536072,7.051349886661146,0.564692463277558,1.1783284392720197
0.04426276417846014,0.01936948167473574,0.9999976652302129,7.148467809243083,0.5826966787650742,1.1723643887293556
0.046592383345747515,0.01928995911364557,0.9999975753926219,7.241471551589584,0.599956236437631,1.1664331266520342
0.04892200251303489,0.019210777586165365,0.9999974907716904,7.330561978323432,0.6165019355494862,1.160533207911972
0.05125162168032227,0.019131922043536108,0.9999974110733337,7.41590448835229,0.6323633014874328,1.1546631814188708
0.053581240847609644,0.019053376855920554,0.9999973359871684,7.497637413447373,0.6475686384568885,1.1488216058175598
0.05591086001489702,0.018975126103861907,0.9999972651929788,7.575878061830585,0.6621450799892539,1.1430070598561042
0.0582404791821844,0.018897153779537147,0.9999971983654683,7.650727135739093,0.6761186373605491,1.137218149033721
0.060570098349471774,0.018819443924635092,0.9999971351776634,7.722272008425142,0.6895142460076589,1.1314535096359257
0.06289971751675914,0.01874198072329718,0.9999970753032498,7.790589189156361,0.7023558100249394,1.1257118109278565
0.06522933668404651,0.018664748562953495,0.999997018418063,7.855746201986947,0.7146662448205455,1.1199917560477446
0.06755895585133388,0.01858773207208525,0.9999969642009,7.9178030356537255,0.7264675180085545,1.114292081984589
0.06988857501862125,0.01851091614133307,0.9999969123337805,7.9768132757396355,0.7377806886098264,1.1086115589139953
0.07221819418590862,0.0184342859325521,0.9999968625017537,8.032824998598969,0.7486259446315287,1.1029489890885302
0.07454781335319599,0.018357823648657828,0.9999968143923189,8.08570937019811,0.7590226390923647,1.0973032054237173
0.07687743252048336,0.018281511823983403,0.999996767694508,8.13533473541829,0.7689893245577751,1.0916730698812005
0.07920705168777073,0.01820533651507434,0.9999967220976579,8.181739054628826,0.7785437862467275,1.0860574717220062
0.0815366708550581,0.018129284006180992,0.9999966772898875,8.224956646280885,0.7877030737691582,1.0804553256819893
0.08386629002234547,0.018053340793808326,0.9999966329562745,8.265018512054514,0.7964835315506916,1.0748655701063554
0.08619590918963284,0.017977493569513354,0.9999965887767182,8.301952608000056,0.80490082799892,1.0692871650689442
0.08852552835692021,0.01790172920145474,0.9999965444234554,8.335784071856514,0.8129699834632759,1.0637190904937035
0.09085514752420758,0.017826034715059006,0.9999964995581841,8.366535414507439,0.8207053970383829,1.0581603442896566
0.09318476669149495,0.01775039727306116,0.9999964538287284,8.39422668178802,0.8281208722587037,1.0526099405060991
0.09551438585878232,0.017674804155096924,0.9999964068651587,8.418875591526785,0.8352296417303187,1.0470669075113612
0.09784400502606969,0.017599242736962346,0.9999963582752563,8.440497649684472,0.8420443907437722,1.0415302861959033
0.10017362419335706,0.017523700469609278,0.9999963076391751,8.45910624866175,0.8485772799101085,1.0359991281985805
0.10250324336064442,0.0174481648579086,0.9999962545031141,8.474712750229797,0.8548399668604585,1.0304724941534271
0.1048328625279318,0.017372623439184106,0.9999961983717611,8.48732655505121,0.8608436270478713,1.024949451953168
0.10716248169521916,0.01729706376149695,0.9999961386991925,8.496955160371508,0.8665989736884707,1.0194290750247579
0.10949210086250653,0.017221473361641537,0.9999960748778247,8.50360420715099,0.8721162768774683,1.0139104406115027
0.1118217200297939,0.017145839742797854,0.9999960062248804,8.507277517654492,0.8774053819140804,1.0083926280556939
0.11415133919708127,0.017070150510253578,0.9999959319657931,8.507985785598299,0.8824757268679727,1.0028747170751313
0.11648095836436864,0.016994394403440173,0.9999958512184706,8.505796938704371,0.8873363594184656,0.9973557957880351
0.11881057753165601,0.01691855534974205,0.9999957629783283,8.500404071926416,0.8919959529966196,0.9918351036613918
0.12114019669894338,0.016842623707244667,0.9999956660802651,8.491732056423738,0.8964628222590703,0.9863120422648851
0.12346981586623075,0.016766591189806678,0.9999955591530457,8.479776933732651,0.9007449379202871,0.9807860196240382
0.12579943503351812,0.01669044938410833,0.9999954405663448,8.464533428672523,0.904849940969489,0.9752564388400803
0.1281290542008055,0.01661418973896509,0.999995308361367,8.44599494622204,0.9087851562973549,0.9697226973623637
0.1304586733680929,0.01653780355400827,0.9999951601584461,8.424153564645676,0.9125576057562653,0.964184186232949
0.13278829253538027,0.01646128196769699,0.9999949930321492,8.39900002495723,0.9161740206765507,0.9586402893011852
0.13511791170266765,0.01638461594461851,0.9999948033396678,8.370523716766467,0.9196408538599065,0.9530903824057854
0.13744753086995504,0.016307796262027163,0.9999945864807096,8.338712660517055,0.9229642910696547,0.9475338325215933
0.13977715003724242,0.016230813495564135,0.9999943365546615,8.303553486089232,0.9261502620358464,0.941969996867879
0.1421067692045298,0.016153658004092658,0.9999940458597515,8.265031407707317,0.929204450991008,0.9363982219746643
0.1444363883718172,0.01607631991357463,0.9999937041421206,8.223130195060055,0.9321323067494202,0.9308178427031993
0.14676600753910457,0.01599878909990508,0.9999932974358199,8.17783214050911,0.9349390523384539,0.9252281812162915
0.14909562670639195,0.015921055170611032,0.9999928062076961,8.129118022228278,0.9376296941835821,0.9196285458937573
0.15142524587367934,0.01584310744530951,0.9999922022672108,8.076967063080287,0.9402090308367719,0.9140182301877604
0.15375486504096672,0.015764934934807375,0.9999914433620433,8.021356884999753,0.9426816612160583,0.9083965114122918
0.1560844842082541,0.015686526318710772,0.9999904631490476,7.962263458604647,0.9450519922808147,0.9027626494604166
0.1584141033755415,0.015607869921396253,0.9999891511554269,7.899661047700639,0.9473242459747667,0.8971158854422787
0.16074372254282887,0.015528953686177011,0.9999873087485028,7.833522148256586,0.9495024650530545,0.8914554402361342
0.16307334171011625,0.0154497651474759,0.9999845392491735,7.763817421279404,0.9515905168472141,0.8857805129438995
0.16540296087740364,0.015370291400791035,0.9999799191095652,7.690515618705753,0.9535920923295782,0.8800902792419558
0.16773258004469102,0.015290519070210335,0.9999706882481633,7.613583500806079,0.9555106916164299,0.874383889617529
0.1700621992119784,0.01521043427329457,0.9999431714686019,7.532985746511476,0.9573495559035792,0.868660467482457
0.1723918183792658,0.015130041862764686,0.7341944177373311,7.449670765356943,0.9591112267309627,0.8629191071751453
0.17472143754655317,0.015049260567583177,2.2889290714615477e-05,7.359375087588992,0.9405762598752021,0.8571600733539013
0.17705105671384055,0.014967709606217584,9.245115296336354e-06,7.239842582857886,0.8630669518526981,0.8513879616291178
0.17938067588112794,0.01488576709270324,4.880004478152686e-06,7.106987020891256,0.7919439897197111,0.8456081693579229
0.18171029504841532,0.014803403863863888,2.8752018580263213e-06,6.957984437120489,0.7266818452982302,0.8398233235047471
0.1840399142157027,0.01472058830892088,1.798797155836639e-06,6.789384971033276,0.6667977285380242,0.8340370982099096
0.1863695333829901,0.014637288363892421,1.1693495961707164e-06,6.597114870434798,0.6118485176685041,0.8282545115458303
0.18869915255027747,0.01455347610039549,7.813768563066104e-07,6.376598442270454,0.5614275684990674,0.8224822943947288
0.19102877171756485,0.014469136697822849,5.336921194827057e-07,6.123079716184045,0.5151617310767723,0.8167293452080445
0.19335839088485224,0.01438428415276322,3.7156236940424964e-07,5.832231146412391,0.4727085980520447,0.8110072862614455
0.19568801005213962,0.014298986230916433,2.6340060996761023e-07,5.501105102846504,0.43375397503738616,0.8053311393368949
0.198017629219427,0.014213400246288279,1.9011828791788592e-07,5.129380849947053,0.3980095575107242,0.7997201415014031
0.2003472483867144,0.014127818566031259,1.397878351924264e-07,4.720671690412312,0.3652107982855585,0.7941987240790784
0.20267686755400177,0.0140427183189535,1.0477039384610174e-07,4.283438111682966,0.3351149502810643,0.7887976790355713
0.20500648672128916,0.01395880567882506,8.008232285964084e-08,3.830963363062451,0.3074992703490015,0.783555544028958
0.20733610588857654,0.01387704642033027,6.242461811455568e-08,3.3800951198169145,0.28215937098697025,0.7785203115798439
0.20966572505586392,0.013798687615637118,4.9586459235138916e-08,2.9490352022779347,0.25890770780546685,0.7737519744738491
0.2119953442231513,0.013725296376123113,4.00739697194121e-08,2.5547427371497626,0.2375721915922265,0.7693277587286719
0.2143249633904387,0.013658830971848793,3.2887574845130206e-08,2.2095919387926015,0.21799491472446358,0.7653536478774479
0.21665458255772607,0.013601645407750012,2.7388110634365704e-08,1.9164855574610777,0.20003098251795334,0.7619797793008961
0.21898420172501346,0.013556116903809165,2.316665244932377e-08,1.6669649579255994,0.18354744087251884,0.7593868436378983
0.22131382089230084,0.013523575109760334,1.9891958398503055e-08,1.4501669303221831,0.1684222922785331,0.7576908603038834
0.22364344005958822,0.013503138861480284,1.7248734628823293e-08,1.262476673782282,0.1545435929008412,0.756828600696785
0.2259730592268756,0.013489379273144378,1.497368983909227e-08,1.051613348633354,0.1418086240660744,0.7565890737099928
0.228302678394163,0.013477071563629624,1.2915622542615305e-08,0.8284386884068128,0.1301231320298969,0.7565890276172172
0.23063229756145037,0.013466151829066391,1.1027162663285627e-08,0.6526849926268161,0.11940063039928217,0.7565890113455852
0.23296191672873776,0.013456549192107953,1.033096207843725e-07,0.5154243168641895,0.10956176004084235,0.7565890005572629
0.23337302599355317,0.013480636871155914,1.0217023577070241e-07,0.8903626348190243,0.10791163663598059,0.7565890005572629
0.23378413525836858,0.013502813267255548,1.0163986239046538e-07,0.8838178893455227,0.10628636822147111,0.7582324642075188
0.234195244523184,0.0135271036240102,1.0118740683461892e-07,0.8779357955944747,0.10468558042783757,0.7600273623399372
0.2346063537879994,0.013553440696023511,1.0080676233685019e-07,0.8726932804845176,0.10310890451654967,0.7619688628582979
0.23501746305281482,0.013581759796319412,1.0049270174168231e-07,0.868057146867633,0.1015559773031144,0.76405236606538
0.23542857231763023,0.01361199903047219,1.0024075340303184e-07,0.8639894353997617,0.10002644107343177,0.7662734995808906
0.23583968158244564,0.013644099342993146,1.0004709620749748e-07,0.8604505193528675,0.09851994350140823,0.7686281086019906
0.23625079084726106,0.013678004465092614,9.990847130786197e-08,0.8574009011577981,0.09703613756780952,0.7711122442063845
0.23666190011207647,0.013713660811221691,9.982210806692305e-08,0.8548022444219142,0.09557468148033445,0.7737221510520448
0.23707300937689188,0.013751017350443985,9.97856619439676e-08,0.8526179461000003,0.09413523859489159,0.7764542551643798
0.2374841186417073,0.01379002546728609,9.979716237414231e-08,0.8508134280767996,0.09271747733806068,0.7793051521608277
0.2378952279065227,0.013830638820406093,9.985496900573343e-08,0.8493562563381449,0.09132107113072112,0.7822715960819198
0.23830633717133812,0.013872813203823336,9.99577349409436e-08,0.8482161543862075,0.08994569831283046,0.7853504888996184
0.23871744643615353,0.013916506413352427,1.0010437586470172e-07,0.8473649526520455,0.08859104206933469,0.7885388707197499
0.23912855570096894,0.013961678119636379,1.0029404414512427e-07,0.8467765003785567,0.08725679035719502,0.7918339106658039
0.23953966496578435,0.014008289748422487,1.0052610715339178e-07,0.846426556885657,0.08594263583351262,0.7952328984155874
0.23995077423059977,0.014056304368271072,1.008001291855759e-07,0.8462926730472607,0.08464827578473588,0.7987332363543624
0.24036188349541518,0.014105686585614143,1.0111585647955256e-07,0.8463540698873105,0.08337341205693397,0.8023324323047811
0.2407729927602306,0.0141564024469211,1.0147320491107631e-07,0.8465915186460935,0.0821177509871199,0.8060280927933479
0.241184102025046,0.0142084193476373,1.0187225002813701e-07,0.8469872249892331,0.08088100333560864,0.8098179168139767
0.24159521128986142,0.0142617059475154,1.0231321914497826e-07,0.8475247189246758,0.07966288421939302,0.813699690050984
0.24200632055467683,0.014316232091940606,1.0279648526914034e-07,0.8481887512624087,0.07846311304652379,0.8176712795260056
0.24241742981949224,0.014371968738849897,1.0332256267864357e-07,0.8489651969715022,0.07728141345147752,0.8217306286356899
0.24282853908430765,0.014428887890854808,1.0389210400361312e-07,0.8498409654768886,0.07611751323149822,0.8258757525494034
0.24323964834912307,0.014486962532193528,1.0450589869861321e-07,0.85080391773914,0.07497114428389759,0.8301047339385255
0.24365075761393848,0.014546166570157714,1.051648728198184e-07,0.8518427898377341,0.07384204254429999,0.8344157190111579
0.2440618668787539,0.014606474780660753,1.0587009004581816e-07,0.852947122707157,0.07272994792581709,0.8388069138281629
0.2444729761435693,0.014667862757636348,1.0662275390311277e-07,0.854107197638725,0.07163460425913903,0.8432765808784375
0.24488408540838472,0.014730306865978048,1.0742421117785235e-07,0.8553139771476607,0.07055575923352803,0.8478230358931409
0.24529519467320013,0.014793784197751443,1.0827595651470192e-07,0.8565590508069594,0.06949316433870067,0.8524446448802782
0.24570630393801554,0.014858272531430947,1.0917963822237115e-07,0.8578345856612309,0.06844657480758592,0.8571398213625985
0.24611741320283095,0.014923750293932173,1.1013706532382976e-07,0.8591332808514146,0.06741574955994489,0.8619070238031794
0.24652852246764637,0.014990196525228632,1.111502159079794e-07,0.8604483261024287,0.06640045114684062,0.8667447532043705
0.24693963173246178,0.015057590845358224,1.1222124685903114e-07,0.8617733637486612,0.06540044569594401,0.8716515508669619
0.2473507409972772,0.01512591342364038,1.1335250506050609e-07,0.8631024539954667,0.06441550285766369,0.8766259962975317
0.2477618502620926,0.01519514494993893,1.1454654019312535e-07,0.864430043138015,0.06344539575208766,0.8816667052529137
0.24817295952690802,0.015265266607818979,1.1580611927042814e-07,0.8657509344809238,0.06248990091672434,0.8867723279116398
0.24858406879172343,0.015336260049458247,1.1713424308334823e-07,0.8670602617234588,0.06154879825503076,0.8919415471630441
0.24899517805653884,0.01540810737218427,1.185341647558834e-07,0.8683534645948319,0.06062187098571654,0.8971730770054569
0.24940628732135425,0.015480791096519425,1.2000941064920023e-07,0.8696262665427443,0.0597089055928115,0.9024656610456329
0.24981739658616967,0.015554294145624821,1.2156380389197746e-07,0.8708746542955237,0.05880969177648604,0.9078180710921666
0.2502285058509851,0.015628599826042942,1.232014908616148e-07,0.8720948591339368,0.05792402240461233,0.9132291058362396
0.2506396151158005,0.015703691809646855,1.2492697099546328e-07,0.8732833397234299,0.057051693465055654,0.918697589613575
0.25105072438061593,0.01577955411671075,1.2674513037509749e-07,0.8744367663707386,0.05619250401868482,0.9242223712419367
0.25146183364543134,0.015856171100023797,1.2866127960180761e-07,0.875552006581045,0.05534625615309067,0.9298023229289886
0.25187294291024676,0.01593352742997491,1.3068119657037028e-07,0.8766261118029287,0.05451275493700268,0.9354363392457032
0.25228405217506217,0.016011608080541712,1.328111748537183e-07,0.8776563052584232,0.053691808375392315,0.9411233361608848
0.2526951614398776,0.01609039831612253,1.350580785370541e-07,0.8786399707647314,0.052883227365253756,0.9468622501327378
0.253106270704693,0.01616988367915433,1.3742940449078885e-07,0.8795746424624589,0.052086825652051326,0.9526520372536852
0.2535173799695084,0.016250049978464385,1.399333532531466e-07,0.8804579953728298,0.05130241978682395,0.9584916724449551
0.2539284892343238,0.01633088327830714,1.4257890991249704e-07,0.881287836713234,0.05052982908393648,0.9643801486977077
0.25433959849913923,0.016412369888041473,1.4537593664547185e-07,0.8820620979067396,0.04976887557946935,0.9703164763577112
0.25475070776395464,0.016494496352406948,1.4833527889112801e-07,0.8827788272268354,0.04901938399023543,0.9762996824508043
0.25516181702877005,0.016577249442360643,1.514688875383968e-07,0.8834361830238542,0.04828118167341658,0.9823288100465807
0.25557292629358547,0.016660616146439086,1.5478995999247187e-07,0.8840324274842476,0.04755409858680961,0.9884029176579231
0.2559840355584009,0.016744583662612268,1.583131035897166e-07,0.8845659208780535,0.04683796724967316,0.9945210786741763
0.2563951448232163,0.016829139390052386,1.620545253920104e-07,0.8850351066126159,0.046132622704167014,1.0006823808259262
0.2568062540880317,0.016914270917347148,1.660322526635187e-07,0.885438449188646,0.045437902477374933,1.0068859255850948
0.2572173633528471,0.016999966019233714,1.7026639258697003e-07,0.8857745383331206,0.04475364654390284,1.0131308274987942
0.25762847261766253,0.017086212653152598,1.747794386802461e-07,0.8860420807168039,0.044079697289044296,1.0194162139750538
0.25803958188247794,0.017172998951647554,1.7959663200821125e-07,0.886239858210029,0.043415899472505494,1.0257412249037738
0.25845069114729335,0.01726031321660653,1.847463900525651e-07,0.8863667243331307,0.042762100192681896,1.0321050122537452
0.25886180041210877,0.017348143913821786,1.9026081859956037e-07,0.8864216009720484,0.042118148851479666,1.0385067396916965
0.2592729096769242,0.01743647966785082,1.9617632599908718e-07,0.8864034753373322,0.04148389711967453,1.0449455822221343
0.2596840189417396,0.017525309257161163,2.0253436448365838e-07,0.8863113971465971,0.04085919890280166,1.0514207258468256
0.260095128206555,0.01761462160954307,2.09382330284201e-07,0.8861444760120527,0.04024391030757057,1.0579313672428474
0.2605062374713704,0.0177044057977753,2.1677466367526576e-07,0.8859018790162925,0.03963788960879943,1.064476713458196
