Time [s],Lmtc [m],STIM [ ],Fsee [N],Gamma [ ],Lcerel [ ]
0.0,0.02122998629990922,0.9999999298650475,1.45237276557789,0.08825732137171123,1.3194018262389737
0.0027658593089596862,0.02122299784008106,0.9999999007637068,2.7218115801792067,0.13285305427955135,1.3154328655459824
0.0055317186179193725,0.02116494991432322,0.9999998522772156,3.6578621939554425,0.17526749098291214,1.3091573472376439
0.008297577926879058,0.02108498211134837,0.9999997895395851,4.2770162256645925,0.21560732347746792,1.3021183314379137
0.011063437235838745,0.020995542069435515,0.9999997171674238,4.704534338109523,0.253974025423427,1.2948140283460157
0.013829296544798432,0.02090212774925548,0.9999996391591726,5.027525565586506,0.2904641073627593,1.2874353932221638
0.016595155853758117,0.02080721027068325,0.9999995587354086,5.29162931933403,0.32516935944814856,1.280064529702414
0.019361015162717803,0.02071195552058642,0.9999994783510302,5.520064493949125,0.358177082291621,1.272739201626365
0.02212687447167749,0.020616937535152858,0.9999993997933264,5.725070480945209,0.3895703065223552,1.2654770157594437
0.024892733780637177,0.02052244461387648,0.9999993243056066,5.913447713085423,0.4194280016101382,1.2582856552493658
0.027658593089596863,0.02042861899294494,0.9999992527064318,6.089188471167596,0.4478252744807624,1.2511676468461637
0.03042445239855655,0.020335524683813486,0.9999991854924004,6.254762746580401,0.4748335584224528,1.2441227502906358
0.03319031170751623,0.02024318234299033,0.9999991229215758,6.411775964535253,0.500520792757411,1.237149222481122
0.03595617101647592,0.02015158809466699,0.9999990650788123,6.561320853268664,0.5249515937292311,1.230244516249511
0.03872203032543561,0.020060724093909188,0.9999990119257341,6.704172834107427,0.548187417034955,1.2234056795618562
0.04148788963439529,0.019970564642294013,0.9999989633383577,6.840903325485914,0.5702867124097049,1.2166295871577835
0.04425374894335498,0.019881079809325002,0.9999989191350821,6.97194764140103,0.591305070652012,1.2099130760661732
0.04701960825231467,0.01979223763769063,0.999998879097332,7.097648599932994,0.6112953634591177,1.2032530240936288
0.04978546756127435,0.019704005490966483,0.9999988429845955,7.218283578782669,0.6303078764235734,1.196646396302264
0.05255132687023404,0.01961635086245185,0.9999988105452483,7.334081660419577,0.6483904355253616,1.1900902704402694
0.05531718617919373,0.01952924184782916,0.9999987815243058,7.445235222083159,0.6655885274374815,1.1835818483302987
0.05808304548815341,0.019442647430812962,0.9999987556688745,7.551909228344376,0.6819454139474526,1.1771184585895855
0.0608489047971131,0.019356537640938615,0.9999987327318778,7.654247213374091,0.6975022407824263,1.170697555945743
0.06361476410607278,0.019270883626157743,0.9999987124745168,7.7523754858974865,0.7122981411115589,1.164316717681397
0.06638062341503247,0.019185657666894066,0.9999986946678137,7.84640603248614,0.7263703339859283,1.1579736382371035
0.06914648272399215,0.0191008331410063,0.9999986790934843,7.936438099208751,0.7397542179635751,1.1516661225136757
0.07191234203295184,0.019016384486214146,0.999998665544323,8.022560997061793,0.7524834601551322,1.1453920776300144
0.07467820134191153,0.01893228716664655,0.9999986538242293,8.104856364177065,0.7645900809140241,1.1391495060480055
0.07744406065087121,0.01884851761022273,0.9999986437479789,8.183398100810685,0.7761045343842414,1.1329364999878753
0.0802099199598309,0.018765053142928274,0.999998635140824,8.258253316920777,0.787055785108303,1.1267512343728554
0.08297577926879059,0.01868187193317391,0.9999986278379667,8.329483650841778,0.797471380888101,1.120591960155265
0.08574163857775027,0.018598952907961437,0.9999986216839543,8.397144305747476,0.8073775220819035,1.1144569987900084
0.08850749788670996,0.018516275700691982,0.999998616532024,8.4612861877149,0.8167991275118284,1.1083447349149813
0.09127335719566965,0.018433820632277297,0.9999986122434108,8.521958021316445,0.8257598971475787,1.1022536116244266
0.09403921650462933,0.0183515642963517,0.9999986086865906,8.578962767863224,0.8342823717241172,1.0961821317696592
0.09680507581358902,0.018269485392679093,0.9999986057365108,8.632183134528043,0.8423879894432423,1.0901288467527313
0.0995709351225487,0.018187566009612344,0.9999986032738823,8.681659340018806,0.8500971399017094,1.084092349299631
0.1023367944315084,0.018105788699448438,0.9999986011844749,8.727428965964629,0.8574292153815471,1.0780712741049219
0.10510265374046808,0.018024136378995786,0.9999985993583439,8.769523279206608,0.8644026596315938,1.072064295091953
0.10786851304942777,0.017942592298130597,0.9999985976889911,8.807971006763093,0.8710350142629671,1.0660701178309635
0.11063437235838745,0.01786114002629189,0.9999985960725581,8.842799437183228,0.8773429628751631,1.0600874768683408
0.11340023166734714,0.017779763393478434,0.9999985944070414,8.874031959439563,0.883342373023794,1.0541151344351998
0.11616609097630683,0.01769844644383684,0.9999985925914046,8.901688755341493,0.8890483361355367,1.0481518759534294
0.11893195028526651,0.017617173416630487,0.9999985905246086,8.925788370479355,0.8944752054706901,1.0421965064307237
0.1216978095942262,0.01753592868633121,0.9999985881046398,8.946345488431609,0.8996366322288366,1.0362478488536644
0.12446366890318589,0.01745469674026405,0.9999985852274347,8.963373009493946,0.9045455998884339,1.0303047397260365
0.12722952821214556,0.01737346221496317,0.9999985817856792,8.97688541943488,0.9092144568667158,1.024366027249197
0.12999538752110523,0.017292209775085214,0.9999985776674802,8.986890060914485,0.9136549475820469,1.018430573756189
0.1327612468300649,0.017210924060076956,0.9999985727548389,8.9933907463373,0.9178782419968786,1.012497247053212
0.13552710613902458,0.017129589666919007,0.9999985669219025,8.996389897665127,0.9218949637155989,1.006564916341548
0.13829296544798425,0.017048191923790215,0.9999985600332393,8.995933076202515,0.9257152167079645,1.0006324508287958
0.14105882475694392,0.016966715148092316,0.9999985519446468,8.991968708297579,0.9293486107253266,0.9946987746642625
0.1438246840659036,0.016885142533198307,0.9999985425017809,8.984182933212075,0.9328042854737302,0.9887630731808185
0.14659054337486327,0.016803463916078065,0.9999985315338998,8.972566620061103,0.9360909336045682,0.9828246239075062
0.14935640268382294,0.016721669019747927,0.9999985188494586,8.957111633760302,0.9392168225804045,0.9768826980059959
0.15212226199278261,0.01663974739389208,0.9999985042315351,8.937809358231025,0.9421898154710591,0.9709365579138981
0.1548881213017423,0.01655768844321777,0.9999984874321991,8.914651994492973,0.9450173907322821,0.9649854577892603
0.15765398061070196,0.016475481457130497,0.9999984681654553,8.887632670844807,0.9477066610167243,0.9590286455996178
0.16041983991966163,0.01639311551316855,0.9999984460983304,8.85673841184348,0.9502643910644697,0.9530653653513824
0.1631856992286213,0.01631057936225231,0.9999984208396193,8.821949046456204,0.9526970147180566,0.9470948503319461
0.16595155853758098,0.016227861469714333,0.9999983919253657,8.783245915865526,0.9550106511047005,0.9411163149034607
0.16871741784654065,0.016144950137448974,0.9999983587997503,8.740616524807614,0.9572111200262918,0.9351289574291499
0.17148327715550032,0.016061833406804955,0.9999983207899803,8.69404245347181,0.9593039565956911,0.9291319692154373
0.17424913646446,0.01597849898533839,0.9999982770727632,8.643500547258824,0.9612944251559002,0.9231245278911498
0.17701499577341967,0.015894934229253307,0.9999982266285183,8.588966063243653,0.9631875325167676,0.9171057922680873
0.17978085508237934,0.015811126108515997,0.9999981681779784,8.530411799326966,0.9649880405420107,0.9110749012511052
0.18254671439133902,0.01572706113426334,0.9999981000928018,8.467806071656968,0.9667004781174771,0.9050309715995516
0.1853125737002987,0.015642725475179572,0.999998020266553,8.401123029890197,0.9683291525296304,0.8989730930100498
0.18807843300925836,0.015558104847845963,0.9999979259241398,8.33033047143209,0.9698781602811755,0.8929003367595197
0.19084429231821803,0.015473184476996407,0.999997813332585,8.255393608165502,0.9713513973683426,0.8868117482923951
0.1936101516271777,0.015387948980621327,0.9999976773476122,8.176271136915856,0.9727525690413354,0.8807063447343206
0.19637601093613738,0.01530238236264638,0.9999975106759118,8.092921087887852,0.9740851990651901,0.8745831071053326
0.19914187024509705,0.015216468192594394,0.9999973026206224,8.005310810245808,0.9753526384915806,0.8684409803127854
0.20190772955405673,0.015130189240235068,0.9999970368326058,7.91338813368354,0.9765580739402092,0.8622788867014326
0.2046735888630164,0.015043527559573321,0.9999966870078182,7.817105286064035,0.9777045353651426,0.8560957004195124
0.20743944817197607,0.01495646436651044,0.9999962079486072,7.71640813284057,0.9787949032308236,0.8498902542539706
0.21020530748093574,0.014868980113184159,0.999995514885907,7.611246556209431,0.9798319148998776,0.8436613316778104
0.21297116678989542,0.01478105429696758,0.9999944280365846,7.501560789966691,0.980818169697075,0.8374076732426411
0.2157370260988551,0.01469266539718471,0.9999924876627773,7.387288307364859,0.9817561310137858,0.831127963855328
0.21850288540781476,0.014603790807830164,0.9999880618594197,7.268363760977732,0.9826481192636526,0.8248208295643765
0.22126874471677443,0.014514406601727323,0.9999680502055263,7.144710742395162,0.983496261542796,0.8184848341892373
0.2240346040257341,0.014424601023742184,1.6722887039987646e-05,7.021887786989313,0.9843019401357687,0.8121184639747198
0.22680046333469378,0.014333570465872306,3.956633699487255e-06,6.855940033534788,0.8887599196442019,0.8057283543795016
0.22956632264365345,0.014241938621155692,1.7685197183056451e-06,6.671881761366299,0.802490771024926,0.799324659357512
0.23233218195261313,0.014149661061101016,9.428432633372359e-07,6.465142349219047,0.724595418234901,0.7929123944514069
0.2350980412615728,0.014056691006610758,5.463664056157134e-07,6.230087243031902,0.6542611625595555,0.7864987951788379
0.23786390057053247,0.013962986744648548,3.3257574571466547e-07,5.96019675445985,0.5907541020611988,0.7800940225276455
0.24062975987949214,0.013868528648269566,2.0935003674087667e-07,5.648683732302556,0.5334115495605489,0.7737120504525411
0.24339561918845182,0.01377335238685851,1.3521614033245889e-07,5.289789784143449,0.4816351349205309,0.7673717682891882
0.2461614784974115,0.013677605807061316,8.924368787999369e-08,4.880906504246475,0.4348845668101776,0.7610983389850297
0.24892733780637116,0.013581631699553141,6.005003178850123e-08,4.425204979190722,0.39267199708188366,0.7549249029155727
0.25169319711533084,0.01348607007289156,4.112248217749926e-08,3.9339537718021984,0.35455693112227893,0.7488946386462271
0.2544590564242905,0.013391955522917998,2.8599984599022395e-08,3.426915786300218,0.32014163179314165,0.7430634448373545
0.2572249157332502,0.013300789759198732,2.0133054279737203e-08,2.9300419889979135,0.28906696928908615,0.7375034392732205
0.25999077504220985,0.013214605118617016,1.4262775255581815e-08,2.4709186360408957,0.2610086737322611,0.7323093416930209
0.2627566343511695,0.013136082576645839,1.0076776696800009e-08,2.072840118844085,0.23567395146140552,0.7276142777732034
0.2655224936601292,0.013068647213593507,7.0248787392428034e-09,1.7449438667672643,0.21279842973891896,0.7236230453730215
0.2682883529690889,0.013016031766436554,4.783504722324199e-09,1.4746667649293836,0.19214339801243316,0.720617357444725
0.27105421227804855,0.01298045278095243,3.1079747927818407e-09,1.2449336534503894,0.1734933169495469,0.71879111482024
0.2738200715870082,0.01296027800843233,1.7785490823257205e-09,1.0530073081681877,0.1566535692522367,0.718017748771553
0.2765859308959679,0.012945660805280255,4.3989586849649564e-08,0.8056561178680888,0.14144842879087657,0.7179527050366361
0.2771534049203415,0.01294832628491729,4.2879839264733526e-08,0.8511066246388247,0.1385161601393373,0.7179527050366358
0.27772087894471514,0.012948234631217602,4.1806331921320834e-08,0.8385479293544282,0.13564468259625703,0.7179991790089937
0.27828835296908877,0.012948810889775585,4.076534712661077e-08,0.8320004832275295,0.13283273585485544,0.7180690522283156
0.2788558269934624,0.012950334523593813,3.9763870334181606e-08,0.8332114832811417,0.13007908573667074,0.7181749464642392
0.279423301017836,0.012953174738733688,3.8820230457788175e-08,0.8416664499927169,0.1273825236500951,0.7183460259642573
0.27999077504220965,0.012957665432626456,3.7965899401490515e-08,0.8461511303549195,0.12474186606014885,0.7186543597586287
0.2805582490665833,0.012964948684799044,3.722306553000026e-08,0.8406566832834594,0.1221559539692847,0.7192085086004507
0.2811257230909569,0.012976067313739523,3.659014373249672e-08,0.8306130656647718,0.11962365240849082,0.7200616848653859
0.28169319711533053,0.01299128349255931,3.605454297080905e-08,0.819635735455697,0.11714384993864387,0.7212178006014512
0.28226067113970416,0.013010548222690604,3.560319937226372e-08,0.8091227628692148,0.1147154581624641,0.722667321403172
0.2828281451640778,0.013033722890981123,3.522489164660452e-08,0.7995757909767971,0.11233741124680774,0.724397927926999
0.2833956191884514,0.013060645778375807,3.491037231759579e-08,0.7911438334569746,0.11000866545491025,0.7263971105726892
0.28396309321282504,0.01309115349830761,3.4652096475823765e-08,0.783829542461265,0.1077281986883305,0.7286528743116196
0.28453056723719866,0.013125088467155172,3.444391674355988e-08,0.7775736390188988,0.10549501003838489,0.7311539283111337
0.2850980412615723,0.013162301459211783,3.4280819237875266e-08,0.7722921752595487,0.10330811934687502,0.7338897125269059
0.2856655152859459,0.013202652252826826,3.415870950262497e-08,0.7678938513501857,0.10116656677591712,0.7368503683783817
0.28623298931031954,0.013246009491922011,3.4074242399807627e-08,0.7642882389542102,0.09906941238668464,0.7400266907062654
0.28680046333469317,0.01329225022435621,3.4024687626996245e-08,0.7613896325407148,0.09701573572688138,0.7434100750694996
0.2873679373590668,0.013341259319841089,3.400782331615162e-08,0.7591186772221042,0.09500463542676339,0.746992466168863
0.2879354113834404,0.01339292885878017,3.4021851623867765e-08,0.7574028985846609,0.09303522880353488,0.7507663092614836
0.28850288540781405,0.013447157537757989,3.406533155791945e-08,0.7561766322971465,0.09110665147394299,0.7547245057414026
0.2890703594321877,0.013503850108699533,3.413712534249142e-08,0.7553806773239322,0.08921805697490348,0.7588603726779181
0.2896378334565613,0.013562916860766787,3.423635550940646e-08,0.7549618154846256,0.08736861639198996,0.7631676063049813
0.2902053074809349,0.013624273145900027,3.4362370520697985e-08,0.7548722770697024,0.08555751799562446,0.7676402491342664
0.29077278150530855,0.01368783894754002,3.4514717273753155e-08,0.7550692355740243,0.08378396688480994,0.7722726602496861
0.2913402555296822,0.013753538491357192,3.469311916880621e-08,0.7555142857031758,0.08204718463824782,0.7770594888703379
0.2919077295540558,0.013821299891109307,3.489745870687173e-08,0.7561729876202283,0.08034640897268848,0.7819956502812057
0.29247520357842943,0.013891054829890295,3.512776386227022e-08,0.7570144416456585,0.07868089340836389,0.7870763042880466
0.29304267760280306,0.013962738272919113,3.538419761862716e-08,0.7580109169262206,0.07704990694135672,0.7922968357920424
0.2936101516271767,0.014036288208016941,3.566705014394865e-08,0.7591374785622369,0.07545273372276093,0.7976528374368606
0.2941776256515503,0.014111645409961597,3.597673328422376e-08,0.7603717262385334,0.07388867274449458,0.8031400935334441
0.29474509967592394,0.014188753230703694,3.6313777067487656e-08,0.76169347570532,0.07235703753162535,0.8087545661517633
0.29531257370029756,0.014267557405160882,3.667882796891104e-08,0.763084543629691,0.07085715584107524,0.8144923819057601
0.2958800477246712,0.014348005879236589,3.707264886400527e-08,0.7645285395446453,0.06938836936657129,0.8203498203409026
0.2964475217490448,0.01443004865346211,3.7496120481943e-08,0.7660106517328092,0.06795003344971341,0.8263233034971262
0.29701499577341844,0.014513637638795669,3.79502442992423e-08,0.7675174928651916,0.06654151679703205,0.8324093860982427
0.29758246979779207,0.014598726527656956,3.8436146889622334e-08,0.7690369544224731,0.06516220120291212,0.8386047468172027
0.2981499438221657,0.014685270676963187,3.895508570678552e-08,0.7705580710457751,0.06381148127826107,0.8449061803744324
0.2987174178465393,0.014773227000943016,3.950845632252206e-08,0.7720708986879739,0.06248876418480234,0.851310590288598
0.29928489187091295,0.014862553873019085,4.009780119853769e-08,0.773566414198343,0.06119346937487755,0.8578149821934523
0.2998523658952866,0.014953211037292162,4.0724820117662006e-08,0.7750364325570795,0.05992502833664328,0.8644164577759883
0.3004198399196602,0.0150451595281658,4.1391382383562524e-08,0.7764735112386473,0.058682884344550566,0.8711122093639265
0.30098731394403383,0.015138361595349417,4.209954095111703e-08,0.7778708825267433,0.057466492214997396,0.8778995147802359
0.30155478796840746,0.015232780635612144,4.2851548718907224e-08,0.779222384879974,0.05627531806704767,0.8847757326924947
0.3021222619927811,0.01532838113050644,4.364987726103704e-08,0.7805224187636863,0.05510883908811112,0.8917382982879558
0.3026897360171547,0.015425128590201611,4.4497238298315086e-08,0.7817658809921683,0.05396654330448114,0.898784719487175
0.30325721004152834,0.015522989500303303,4.539660826979845e-08,0.7829481235190215,0.05284792935663063,0.9059125732658813
0.30382468406590196,0.015621931273346913,4.635125647933541e-08,0.784064909229422,0.05175250627916669,0.913119502329246
0.3043921580902756,0.015721922204695336,4.7364777386740394e-08,0.7851123919778041,0.05067979328534787,0.9204032119991934
0.3049596321146492,0.01582293143248354,4.84411276492592e-08,0.7860870554867533,0.04962931955606933,0.9277614675760754
0.30552710613902284,0.015924928898154098,4.958466869910051e-08,0.7869857051258405,0.0486006240332237,0.9351920915097521
0.30609458016339647,0.016027885312268488,5.080021584162341e-08,0.7878054328818638,0.04759325521734648,0.9426929610718506
0.3066620541877701,0.016131772121945394,5.209309497234938e-08,0.7885435965342841,0.04660677096945805,0.9502620060831298
0.3072295282121437,0.016236561481154387,5.346920830980763e-08,0.7891977991522633,0.045640738317014526,0.9578972068465759
0.30779700223651735,0.0163422262229604,5.493511079531197e-08,0.7897658638326448,0.044694733263883554,0.9655965922425823
0.308364476260891,0.016448739833410185,5.6498099216330265e-08,0.7902458238116485,0.043768340604260596,0.9733582378756187
0.3089319502852646,0.016556076428267324,5.816631657745967e-08,0.7906359065265706,0.042861153740445426,0.9811802644542772
0.3094994243096382,0.016664210730292485,5.994887474049318e-08,0.79093450101477,0.04197277450439831,0.9890608362832203
0.31006689833401185,0.016773118047493783,6.185599923323172e-08,0.7911401770269414,0.04110281298299829,0.9969981595989326
0.3106343723583855,0.016882774252153822,6.389920038426049e-08,0.7912515898622443,0.04025088734692719,1.0049904814614026
0.3112018463827591,0.01699315575539854,6.609147699394302e-08,0.7912674899600476,0.03941662368310466,1.0130360878620874
0.31176932040713273,0.01710423950209709,6.844756218735502e-08,0.7911868639170464,0.03859965583060134,1.0211333027387615
0.31233679443150636,0.017216002953584008,7.0984218875732e-08,0.7910088160340706,0.03779962521995903,1.0292804872369907
0.31290426845588,0.017328424071722828,7.372059739404236e-08,0.790732581758502,0.03701618071584808,1.037476038492055
0.3134717424802536,0.0174414813066025,7.667867156008357e-08,0.7903574892980444,0.036248978462994186,1.045718388901995
0.31403921650462724,0.0175551535821886,7.98837739098234e-08,0.7898829747059259,0.03549768173530848,1.0540060050173932
0.31460669052900087,0.01766942028437072,8.336525747356688e-08,0.7893085525064873,0.03476196078815657,1.0623373868000574
0.3151741645533745,0.01778426124856856,8.715732044043641e-08,0.7886338426391698,0.034041492713703825,1.0707110666028041
