Time [s],Lmtc [m],STIM [ ],Fsee [N],Gamma [ ],Lcerel [ ]
0.0,0.01890536272069081,0.9999998706440694,2.38091482720319,0.11695358751661482,1.1473318337564344
0.0010191838923307378,0.01890835781568784,0.9999998623661575,2.896686922354928,0.13312190028821,1.1463134804211934
0.0020383677846614757,0.01890240144708052,0.999999850163682,3.385531832025331,0.14899417594746675,1.1448054908052048
0.0030575516769922135,0.01888968234402385,0.9999998345090243,3.836555918504033,0.16457583477332477,1.1429546105500623
0.004076735569322951,0.018871716805999965,0.999999815660676,4.243165240797709,0.17987219780969035,1.1408578644525798
0.005095919461653689,0.01884960547126951,0.9999997938051415,4.602754417124821,0.19488848867848335,1.138580876379973
0.006115103353984427,0.018824201260326832,0.999999769090936,4.916608226129432,0.20962983536208685,1.136169445820232
0.007134287246315165,0.01879617778845697,0.9999997416403503,5.188514791108048,0.22410127195378277,1.1336561922105797
0.008153471138645903,0.018766067428409187,0.999999711554812,5.423403070692129,0.23830774037635277,1.1310647375933984
0.00917265503097664,0.018734289748878606,0.9999996789171023,5.626414878076768,0.2522540920693108,1.1284124601310819
0.010191838923307377,0.018701174811588117,0.9999996437918911,5.802385626071038,0.2659450896452832,1.1257123402509646
0.011211022815638114,0.0186669822899989,0.9999996062254198,5.955608279803542,0.27938540851607035,1.1229742142695958
0.01223020670796885,0.018631916871180525,0.9999995662447563,6.089766115700893,0.2925796384889312,1.1202056367100395
0.013249390600299588,0.018596140439789438,0.9999995238568159,6.207954488104901,0.3055322853336245,1.1174124816448552
0.014268574492630325,0.018559781588024286,0.9999994790472071,6.312742705611076,0.31824777232074186,1.1145993680120134
0.015287758384961062,0.018522942975584742,0.9999994317788928,6.406248703552,0.33073044173185306,1.1117699646968564
0.0163069422772918,0.018485707000440672,0.9999993819906206,6.490212600655806,0.3429845563419751,1.1089272123925868
0.017326126169622535,0.01844814016226453,0.9999993295950487,6.566062927128425,0.35501430087487146,1.1060734870792701
0.018345310061953272,0.018410296423146514,0.9999992744764817,6.634973449635267,0.36682378343166766,1.103210722001138
0.01936449395428401,0.01837221904641785,0.9999992164881065,6.697873902985652,0.37841703689327094,1.1003404997601536
0.020383677846614746,0.018333943054724484,0.9999991554486011,6.755509835969683,0.38979802029706007,1.0974641226246142
0.021402861738945483,0.018295498175864674,0.9999990911379601,6.808541473387439,0.4009706201883056,1.094582666769097
0.02242204563127622,0.01825690900632575,0.9999990232923412,6.8575181826732,0.41193865194677165,1.0916970245293012
0.023441229523606957,0.018218195968509654,0.9999989515976871,6.90289862470294,0.4227058610889308,1.0888079376228337
0.024460413415937694,0.018179376074536412,0.9999988756818076,6.945067284168345,0.4332759245462221,1.0859160234922185
0.02547959730826843,0.018140463534159663,0.9999987951045123,6.984347787181623,0.44365245191975694,1.0830217963623026
0.026498781200599168,0.018101470241368104,0.9999987093452543,7.021013648846045,0.45383898671187245,1.0801256841994673
0.027517965092929905,0.018062406166075205,0.999998617787567,7.055296967515408,0.4638390075349097,1.0772280424666278
0.028537148985260642,0.01802327967114918,0.9999985196993304,7.087395478214509,0.4736559292975727,1.074329165353108
0.02955633287759138,0.017984097770393195,0.9999984142075454,7.11747829318312,0.48329310436920575,1.0714292949996782
0.030575516769922116,0.017944866339567926,0.9999983002658027,7.14569058985493,0.49275382372229176,1.0685286291205667
0.03159470066225285,0.017905590289872042,0.9999981766118982,7.172157452840525,0.5020413180534341,1.0656273273351566
0.03261388455458359,0.017866273711249832,0.99999804171198,7.196987033977622,0.5111587588830391,1.0627255164544995
0.03363306844691433,0.017826919991323756,0.9999978936860062,7.220273160966029,0.5201092596338416,1.0598232949161221
0.034652252339245064,0.017787531914536442,0.9999977302068364,7.242097498646664,0.5288958766883163,1.0569207365208335
0.0356714362315758,0.017748111745145935,0.9999975483614476,7.262531346105245,0.5375216104248823,1.0540178935944127
0.03669062012390654,0.017708661296984368,0.9999973444566357,7.281637136283429,0.5459894062325926,1.051114799672972
0.037709804016237275,0.017669181992315815,0.9999971137414964,7.299469691719161,0.5543021555036888,1.0482114717919027
0.03872898790856801,0.01762967491167669,0.9999968500019618,7.31607727967368,0.5624626966029009,1.045307912443344
0.03974817180089875,0.017590140836224403,0.9999965449529042,7.331502501655941,0.5704738158115746,1.042404111255255
0.040767355693229486,0.017550580283835698,0.9999961872992555,7.345783045775027,0.5783382482433823,1.0395000464356565
0.04178653958556022,0.017510993539969,0.9999957612349765,7.358952325083601,0.5860586787260775,1.0365956860179824
0.04280572347789096,0.017471380684123364,0.9999952439437344,7.371040020845589,0.5936377426396221,1.0336909889373227
0.0438249073702217,0.017431741612579595,0.9999946012302181,7.382072546251619,0.601078026693204,1.0307859059623206
0.044844091262552434,0.017392076057990757,0.9999937794186594,7.392073443345529,0.6083820696080419,1.0278803805034256
0.04586327515488317,0.017352383606292383,0.9999926891797449,7.401063723675963,0.6155523626393529,1.02497434931485
0.04688245904721391,0.01731266371132362,0.9999911700357542,7.409062161330461,0.6225913497926399,1.0220677431048422
0.047901642939544645,0.017272915707484578,0.9999889019179437,7.416085545425959,0.6295014273861296,1.0191604870666546
0.04892082683187538,0.017233138820697835,0.9999851411412535,7.422148897646577,0.6362849420018745,1.0162525013407486
0.04994001072420612,0.017193332177888015,0.9999776730202792,7.427265658727105,0.6429441836401999,1.0133437014174573
0.050959194616536856,0.017153494815188408,0.9999556169910031,7.4314478478790695,0.6494813598223905,1.0104339984889712
0.05197837850886759,0.017113672817843532,0.2217455380939795,7.4371143198695195,0.6558984384328039,1.007523299765587
0.05299756240119833,0.017073474259094962,1.9175928764852886e-05,7.4233653065692655,0.6398669262902377,1.0046128605948317
0.05401674629352907,0.017033096443672874,8.69083252450891e-06,7.398995215572104,0.6162398802938014,1.001704558245449
0.055035930185859804,0.01699267722951569,5.231481419954644e-06,7.37056699538709,0.5934849140905026,0.9987991099913153
0.05605511407819054,0.016952210408468844,3.537018467955735e-06,7.337602390912362,0.5715700841549332,0.9958967841697529
0.05707429797052128,0.016911691225253864,2.54800126969194e-06,7.299647807439748,0.5504644322644081,0.9929979317712417
0.058093481862852014,0.016871115480199945,1.9103478405524045e-06,7.256244227095045,0.5301381042575544,0.9901029665280586
0.05911266575518275,0.01683047902445989,1.4721422143366802e-06,7.206899492833379,0.510562335311377,0.9872123712152545
0.06013184964751349,0.016789777883443432,1.1574190880870995e-06,7.1510912447031565,0.4917094171809035,0.9843267065421315
0.061151033539844225,0.016749008422411404,9.240092334523398e-07,7.088271745410452,0.4735526619879048,0.9814466210939579
0.06217021743217496,0.016708167563612007,7.466551335906887e-07,7.017875007886014,0.4560663657901591,0.9785728624239387
0.0631894013245057,0.01666725306519408,6.093287120611206e-07,6.939326641044987,0.4392257728725067,0.9757062893984199
0.06420858521683645,0.016626263872623805,5.013872230587615e-07,6.852056798951277,0.4230070410728383,0.9728478858995199
0.0652277691091672,0.016585200553200848,4.1550201220292646e-07,6.755516537730964,0.4073872082465273,0.9699987759879616
0.06624695300149794,0.016544065823224142,3.4647428142976686e-07,6.6491977384310195,0.39234415989273497,0.9671602406237944
0.06726613689382868,0.01650286517508035,2.9052417787043826e-07,6.532656529109132,0.3778565979324373,0.9643337360327102
0.06828532078615943,0.016461607607714618,2.44846254332092e-07,6.40553982776555,0.3639040106131229,0.9615209137892944
0.06930450467849017,0.01642030645836247,2.0732168900618336e-07,6.267614231577361,0.3504666435083927,0.9587236426639829
0.07032368857082091,0.016378980325999683,1.7632634540987762e-07,6.118796015301524,0.33752547157782037,0.9559440322458774
0.07134287246315166,0.016337654067886925,1.5059939190567984e-07,5.959180511394066,0.3250621722514605,0.9531844583070448
0.0723620563554824,0.016296359840393834,1.291513058851128e-07,5.789068688386507,0.31305909950340255,0.9504475898146544
0.07338124024781315,0.016255138144975582,1.1119815026372543e-07,5.608988405864802,0.30149925887930384,0.947736417426756
0.07440042414014389,0.016214038831233363,9.61137751270921e-08,5.419707700541228,0.2903662834436457,0.9450542832329714
0.07541960803247463,0.01617312200339413,8.339449829809987e-08,5.222237641978724,0.2796444106134096,0.9424049114420828
0.07643879192480538,0.01613245877670052,7.263263181153186e-08,5.017822856425593,0.269318459845904,0.9397924397172474
0.07745797581713612,0.01609213183884282,6.349638188293867e-08,4.807918768711466,0.2593738111495273,0.937221451001879
0.07847715970946686,0.01605223579159152,5.571440927206529e-08,4.594155893040522,0.24979638438731133,0.9346970061204575
0.07949634360179761,0.016012877281877128,4.906384435351143e-08,4.378292953176916,0.24057261934414756,0.9322246784302548
0.08051552749412835,0.01597417498111789,4.336089797406169e-08,4.162161962468547,0.2316894565296193,0.9298105936848197
0.0815347113864591,0.015936259534231976,3.845345231955756e-08,3.9476092814374417,0.22313431868937358,0.9274614813685651
0.08255389527878984,0.015899273664371216,3.4215191225117e-08,3.736436699767726,0.2148950929989428,0.9251847480200621
0.08357307917112058,0.01586337265830654,3.05409575397889e-08,3.5303454801513774,0.2069601139148711,0.9229885873022227
0.08459226306345133,0.015828725417173055,2.7343115494073516e-08,3.3308841387612573,0.19931814665891925,0.9208821423218645
0.08561144695578207,0.015795516054048473,2.4548748161590215e-08,3.139398262165512,0.19195837131200802,0.9188757259616377
0.08663063084811282,0.01576394555254743,2.2097528039836104e-08,2.9569794233570836,0.18487036749541455,0.9169810743074641
0.08764981474044356,0.01573423220696853,1.994005935930333e-08,2.7844123622197348,0.1780440996175621,0.9152115465147521
0.0886689986327743,0.01570660854726915,1.803641947107593e-08,2.62212666083288,0.17146990266553502,0.9135820928537935
0.08968818252510505,0.015681311665510036,1.6354578110033267e-08,2.470170109053368,0.16513846852121025,0.9121087231362305
0.09070736641743579,0.01565856421756135,1.4868444725806322e-08,2.3282291848206818,0.15904083278263043,0.9108072007105115
0.09172655030976654,0.01563854593893325,1.3555566747013038e-08,2.1957155857331534,0.15316836207194687,0.9096908739539332
0.09274573420209728,0.015621360457872324,1.239490835353747e-08,2.0719090861338314,0.1475127418119517,0.9087679817763454
0.09376491809442802,0.015607007446755,1.1365392793182962e-08,1.9561096360450994,0.1420659644539002,0.9080392613601272
0.09478410198675877,0.015595371587744647,1.0445687686541943e-08,1.8477386377572689,0.13682031813998544,0.9074968567167552
0.09580328587908951,0.01558623451270914,9.615109422787816e-09,1.74635890264869,0.1317683757844617,0.9071250910965377
0.09682246977142026,0.015579306047762316,8.854982770479671e-09,1.65162928430449,0.12690298455799878,0.9069028315874719
0.097841653663751,0.015574030005619539,8.14909575770441e-09,1.5577722345963272,0.12221725576039306,0.9068065284346951
0.09886083755608174,0.015567312681632658,7.47889031530625e-09,1.4047116342390347,0.1177045550672627,0.906806314400007
0.09988002144841249,0.015560899915780042,6.833451423922281e-09,1.2659191102259049,0.1133584931367214,0.9068062998391804
0.10089920534074323,0.01555479388728349,6.2118472389508685e-09,1.1404720133569957,0.10917291656328476,0.9068062919413513
0.10191838923307397,0.015548991299556562,5.99556081209588e-08,1.0273229154148824,0.10514189916590518,0.9068062863545319
0.10214920534074323,0.015565917232793177,5.940587465171896e-08,1.3739027698981183,0.10424986178179317,0.9068062863545311
0.10238002144841249,0.015568325673268171,5.891885433177146e-08,1.3821793266231466,0.10336539327700689,0.9069544087514312
0.10261083755608175,0.015571302960642424,5.847019536407081e-08,1.388228470665822,0.10248842943058879,0.9071514276876518
0.102841653663751,0.015574984346790433,5.806723006209599e-08,1.3903572006278846,0.10161890656628589,0.9074127369799425
0.10307246977142026,0.015579541326300878,5.771390520621268e-08,1.3888163044884838,0.1007567615481964,0.9077499790984824
0.10330328587908952,0.01558511049786441,5.741107120567972e-08,1.3846865311115646,0.0999019317761567,0.9081695572291287
0.10353410198675878,0.015591772996057766,5.7157778760777356e-08,1.3789626213615374,0.09905435518116869,0.9086741275812055
0.10376491809442803,0.01559956838994302,5.6952296760299316e-08,1.3723437391064344,0.09821397022087819,0.9092642852899027
0.10399573420209729,0.015608510974768433,5.6792660424553945e-08,1.3652845536373275,0.09738071587509946,0.9099395802474187
0.10422655030976655,0.01561860053610773,5.6676929647353684e-08,1.358075531690765,0.09655453164138277,0.9106990389269077
0.1044573664174358,0.015629828597403375,5.660330335464318e-08,1.350902234327122,0.09573535753062151,0.9115414268393648
0.10468818252510506,0.015642181968617913,5.6570165980004487e-08,1.343883365393324,0.09492313406269792,0.9124653837670726
0.10491899863277432,0.01565564478887805,5.657610219663812e-08,1.3370944551969055,0.09411780226216564,0.9134694959393829
0.10514981474044358,0.01567019973042468,5.661989696559391e-08,1.330582667600596,0.09331930365396952,0.9145523358473944
0.10538063084811283,0.015685828725930835,5.6700529105238746e-08,1.3243762118468148,0.09252758025920148,0.9157124847662701
0.10561144695578209,0.015702513417464276,5.681716241115588e-08,1.3184904472531465,0.09174257459089223,0.9169485456691918
0.10584226306345135,0.015720235438229355,5.6969136330804214e-08,1.3129319246254558,0.0909642296498391,0.9182591506114925
0.1060730791711206,0.015738976591122618,5.715595718827115e-08,1.307701113547839,0.09019248892046841,0.9196429648343151
0.10630389527878986,0.015758718962047533,5.7377290441223226e-08,1.3027942749566985,0.08942729636673373,0.9210986888727275
0.10653471138645912,0.0157794449910856,5.763295418874288e-08,1.2982047665102234,0.08866859642804822,0.9226250594258951
0.10676552749412838,0.015801137515939083,5.7922914014858124e-08,1.2939239644345486,0.08791633401525184,0.9242208494487629
0.10699634360179763,0.015823779796850256,5.824727918751975e-08,1.289941921556678,0.08717045450661241,0.9258848677508734
0.10722715970946689,0.015847355528998353,5.8606300205063816e-08,1.2862478410247662,0.08643090374386082,0.9276159582837552
0.10745797581713615,0.015871848846360705,5.900036767509983e-08,1.2828304194475557,0.08569762802825984,0.9294129992342823
0.1076887919248054,0.015897244319730806,5.9430012515296286e-08,1.279678096362122,0.0849705741167061,0.9312749020011584
0.10791960803247466,0.015923526950739113,5.989590747683692e-08,1.2767792357650067,0.08424968921786526,0.9332006101058311
0.10815042414014392,0.015950682163158442,6.039887000681395e-08,1.2741222578975613,0.08353492098834005,0.935189098072279
0.10838124024781318,0.01597869579239397,6.093986648422318e-08,1.2716957343061073,0.08282621752887076,0.9372393702988967
0.10861205635548243,0.016007554073795508,6.152001788500594e-08,1.2694884556029093,0.08212352738056797,0.9393504599381466
0.10884287246315169,0.016037243630247174,6.214060695467714e-08,1.2674894788234787,0.08142679952117735,0.9415214277944932
0.10907368857082095,0.016067751459360832,6.280308699274907e-08,1.2656881594713483,0.08073598336137627,0.943751361247577
0.1093045046784902,0.01609906492050805,6.350909238188546e-08,1.2640741720413506,0.08005102874110183,0.9460393732051061
0.10953532078615946,0.016131171721859364,6.426045102719594e-08,1.2626375218656745,0.07937188592591003,0.9483846010882161
0.10976613689382872,0.016164059907551584,6.505919890818995e-08,1.2613685504304382,0.07869850560336637,0.9507862058508115
0.10999695300149798,0.01619771784506928,6.590759698877311e-08,1.260257935794411,0.07803083887946653,0.9532433710335644
0.11022776910916723,0.016232134212900172,6.680815078065365e-08,1.259296689355191,0.07736883727508817,0.9557553018526014
0.11045858521683649,0.016267297988505826,6.776363291434296e-08,1.258476149917337,0.0767124527224726,0.9583212243225224
0.11068940132450575,0.01630319843663419,6.877710914167677e-08,1.2577879757962862,0.07606163756173674,0.9609403844130643
0.110920217432175,0.016339825097990493,6.985196827708637e-08,1.2572241355234204,0.07541634453741489,0.9636120472385381
0.11115103353984426,0.01637716777827494,7.09919566849898e-08,1.25677689758859,0.07477652679502979,0.9663354962790351
0.11138184964751352,0.016415216537589747,7.220121804179396e-08,1.2564388195566134,0.07414213787769336,0.9691100326322979
0.11161266575518278,0.016453961680213913,7.348433924834053e-08,1.256202736817034,0.07351313172273673,0.9719349742951219
0.11184348186285203,0.01649339374474075,7.484640354888574e-08,1.2560617511664685,0.07288946265836894,0.9748096554731168
0.11207429797052129,0.016533503494570945,7.629305213444771e-08,1.2560092193760823,0.07227108540036453,0.9777334259176632
0.11230511407819055,0.016574281908752302,7.783055578266067e-08,1.2560387418597587,0.07165795504877986,0.980705650288907
0.1125359301858598,0.016615720173156115,7.94658984275337e-08,1.2561441515303449,0.07105002708469786,0.9837257075436622
0.11276674629352906,0.016657809671979273,8.120687497952993e-08,1.2563195029082908,0.07044725736700107,0.9867929903471075
0.11299756240119832,0.016700541979560883,8.30622062539444e-08,1.2565590615296585,0.06984960212917286,0.9899069045072124
0.11322837850886758,0.016743908852501748,8.50416745465192e-08,1.2568572936863665,0.06925701797612699,0.9930668684308467
0.11345919461653683,0.01678790222207517,8.715628426352499e-08,1.2572088565208248,0.06866946188106489,0.9962723126005859
0.11369001072420609,0.016832514186726363,8.941845310425433e-08,1.2576085844758427,0.06808689118236112,0.9995226790712406
0.11392082683187535,0.016877737002514874,9.184224051477785e-08,1.2580514339391469,0.06750926358047707,1.0028174209619962
0.1141516429395446,0.016923563076876286,9.444362262307175e-08,1.2585325218865289,0.06693653713490233,1.0061560018648497
0.11438245904721386,0.0169699849662734,9.724082529794765e-08,1.259047179018809,0.06636867026112488,1.009537895486922
0.11461327515488312,0.017016995367883564,1.0025472925181228e-07,1.2595908835978988,0.0658056217276295,1.012962585272287
0.11484409126255238,0.017064587113482004,1.0350936629289381e-07,1.2601592529049725,0.06524735065292496,1.0164295639843044
0.11507490737022164,0.01711275316357893,1.0703253164674775e-07,1.2607480359323509,0.064693816502601,1.0199383333025045
0.11530572347789089,0.017161486601761883,1.1085654526322867e-07,1.2613531064154537,0.06414497908641525,1.0234884034335479
0.11553653958556015,0.017210780629234295,1.1501920614778057e-07,1.2619704561938117,0.06360079855541136,1.027079292735612
0.1157673556932294,0.017260628559541174,1.195649992930572e-07,1.2625961888897472,0.06306123539906974,1.0307105273555552
0.11599817180089866,0.017311023813473544,1.245466367748856e-07,1.2632265138929906,0.06252625044249271,1.0343816408782647
0.11622898790856792,0.017361959914143445,1.300270461353168e-07,1.263857740639266,0.06199580484362641,1.0380921739876103
0.11645980401623718,0.017413430482221697,1.3608196516899956e-07,1.2644862731712108,0.061469860090523465,1.041841674138457
0.11669062012390644,0.01746542923133093,1.4280337038614636e-07,1.26510860496981,0.0609483779986507,1.0456296952392152
0.11692143623157569,0.017517949963586795,1.503040692843032e-07,1.2657213140450834,0.06043132070824889,1.0494557973444336
0.11715225233924495,0.017570986565280444,1.5872394493071953e-07,1.266321058274905,0.05991865068175364,1.0533195463569605
0.11738306844691421,0.01762453300269588,1.6823859064718735e-07,1.2669045709813611,0.05941033070129149,1.057220513739225
