Time [s],Lmtc [m],STIM [ ],Fsee [N],Gamma [ ],Lcerel [ ]
0.0,0.02058908947317216,0.9999998293450726,1.093344015848737,0.06898803842854356,1.2739281341956
0.0021901408608092057,0.02062952799337264,0.9999998152606764,2.0291136642949152,0.10523469513405506,1.2739281341846125
0.0043802817216184115,0.02061758147037412,0.999999763953254,3.0759348352855533,0.14007017676568456,1.2704947354366825
0.006570422582427618,0.02057535211765854,0.9999996871642711,3.8985208716045077,0.17354942250868888,1.2657000170772827
0.008760563443236823,0.02051676640544871,0.9999995900421087,4.493817884652773,0.20572523308324597,1.2602984728808402
0.010950704304046028,0.020449270932357398,0.999999477249304,4.923563167584092,0.2366483537436555,1.2546081076715687
0.013140845164855234,0.020376924852791963,0.9999993530701746,5.2464383115314845,0.266367554283938,1.2487777383848808
0.015330986025664439,0.020301931221376135,0.9999992212733662,5.501706366895988,0.2949297059328027,1.242883071213049
0.017521126886473646,0.020225512198317665,0.9999990850410115,5.713313806640331,0.32237985524954665,1.236965260531347
0.01971126774728285,0.020148367632774854,0.9999989469717107,5.895658000239656,0.3487612951402419,1.2310477728142735
0.021901408608092057,0.020070910929628042,0.9999988091280931,6.057522387646043,0.37411563310919616,1.225144396326145
0.024091549468901262,0.019993392557199785,0.9999986731046198,6.20440356288733,0.39848285685506435,1.219263330584851
0.026281690329710467,0.01991596684795352,0.999998540100292,6.339842235845485,0.42190139731577403,1.2134094059653548
0.028471831190519672,0.019838729470816475,0.9999984109878604,6.466187143336258,0.4444081892617843,1.2075853516730997
0.030661972051328878,0.019761739221593504,0.9999982863755835,6.585041348283041,0.46603872953298836,1.2017925517160801
0.03285211291213808,0.019685031126376942,0.9999981666602035,6.697529074609225,0.48682713301070984,1.1960315120017357
0.03504225377294729,0.01960862456413295,0.9999980520712202,6.804459217229306,0.50680618641263,1.190302157680458
0.0372323946337565,0.019532528439833746,0.9999979427072364,6.906428007988021,0.5260073999950652,1.1846040271875704
0.03942253549456571,0.01945674455854668,0.9999978385654058,7.003885001174022,0.5444610572437569,1.178936401498998
0.04161267635537492,0.019381269872281594,0.9999977395650571,7.097176428364071,0.562196262631221,1.1732983916828168
0.04380281721618413,0.01930609800319309,0.9999976455664972,7.186574277900172,0.5792409875157016,1.167688998991907
0.045992958076993336,0.019231220291995147,0.9999975563858703,7.272296178879401,0.5956221142538927,1.162107156519448
0.048183098937802545,0.019156626528723356,0.9999974718068224,7.354519244265319,0.6113654785968188,1.156551758263071
0.05037323979861175,0.019082305467233357,0.999997391589591,7.433389871841398,0.6264959104355899,1.1510216794630723
0.05256338065942096,0.019008245190155405,0.9999973154780274,7.509030793509641,0.6410372729611762,1.1455157908170046
0.05475352152023017,0.018934433369002832,0.9999972432049627,7.581546221056807,0.6550125002998628,1.1400329683508503
0.05694366238103938,0.018860857449868738,0.9999971744962474,7.6510256551034415,0.6684436336836723,1.1345721001819786
0.05913380324184859,0.018787504785740726,0.9999971090737239,7.7175467418474915,0.6813518562127387,1.1291320910417915
0.0613239441026578,0.018714362730159834,0.9999970466573449,7.781177442458784,0.6937575262644068,1.1237118651747013
0.063514084963467,0.018641418702660353,0.9999969869665962,7.8419777000254856,0.7056802096017128,1.118310368055825
0.06570422582427621,0.01856866023346769,0.9999969297213552,7.9000007348066275,0.7171387102318614,1.1129265672474717
0.06789436668508542,0.01849607499286303,0.9999968746422809,7.955294061381234,0.7281511000633283,1.1075594526276489
0.07008450754589463,0.018423650753795043,0.9999968214508125,8.007897359885929,0.7387347474083573,1.1022080361615583
0.07227464840670383,0.018351371927714355,0.9999967698688298,8.057658327003756,0.7489063443757829,1.096871351341966
0.07446478926751304,0.018279224599662157,0.9999967196180157,8.104498873706074,0.7586819331973635,1.0915484523914494
0.07665493012832225,0.01820719719144759,0.9999966704189429,8.148452540025989,0.7680769315291438,1.086238413295329
0.07884507098913146,0.018135278278076525,0.9999966219899004,8.189549695662521,0.7771061567677292,1.0809403267162
0.08103521184994067,0.018063456580497194,0.9999965740454556,8.227817834987796,0.785783849419826,1.075653302827619
0.08322535271074988,0.0179917209562832,0.9999965262947464,8.263281823125217,0.7941236955618858,1.0703764680945196
0.08541549357155909,0.017920060388761754,0.9999964784394767,8.29596410237744,0.802138848425275,1.0651089640203992
0.0876056344323683,0.01784846397496662,0.999996430171583,8.325884866230627,0.8098419491409995,1.0598499458756114
0.0897957752931775,0.01777692091269809,0.9999963811705256,8.353062206602782,0.8172451466766918,1.0545985814167862
0.09198591615398671,0.017705420486897036,0.999996331100137,8.377512238811123,0.8243601169973009,1.0493540496040648
0.09417605701479592,0.017633952055482828,0.9999962796049486,8.399249207812778,0.8311980814796778,1.0441155393203203
0.09636619787560513,0.017562505034759618,0.9999962263058864,8.41828557855787,0.8377698246100969,1.038882248094549
0.09855633873641434,0.017491068884460413,0.999996170795201,8.43463211273327,0.8440857109925972,1.0336533808300952
0.10074647959722355,0.017419633092470695,0.9999961126304583,8.448297933733125,0.8501557016949487,1.0284281485371827
0.10293662045803276,0.017348187159250582,0.9999960513273679,8.459290581340152,0.8559893699579966,1.0232057670682484
0.10512676131884197,0.017276720581956943,0.9999959863511629,8.46761605731974,0.8615959162931188,1.017985455853821
0.10731690217965117,0.017205222838251398,0.9999959171061598,8.473278862900322,0.8669841829915685,1.0127664366360292
0.10950704304046038,0.017133683369767803,0.9999958429230146,8.476282028927772,0.8721626680685222,1.0075479321962892
0.11169718390126959,0.017062091716051327,0.9999957630431824,8.476635368299581,0.8771395386637535,1.0023291650732287
0.1138873247620788,0.016990438357081285,0.9999956766048734,8.474395839009604,0.8819226439199841,0.9971093650174491
0.11607746562288801,0.016918709406594127,0.9999955826282882,8.46927420337243,0.886519527359296,0.9918879078755746
0.11826760648369722,0.016846897000027037,0.9999954799797279,8.461220346553175,0.8909374387771276,0.9866642909212182
0.12045774734450643,0.01677499414415376,0.9999953673304267,8.450231020649262,0.8951833456718054,0.9814380143705906
0.12264788820531564,0.016702993742081278,0.9999952431083469,8.436301914490517,0.8992639442274948,0.9762085743839027
0.12483802906612484,0.016630888585359126,0.9999951054355001,8.419427652689377,0.9031856698676808,0.9709754625263707
0.12702816992693405,0.01655867134561555,0.9999949520452556,8.399601791825633,0.9069547073953316,0.9657381652081305
0.12921831078774326,0.0164863345656995,0.9999947801717256,8.376816813854552,0.9105770007350612,0.9604961631017678
0.13140845164855247,0.01641387065030234,0.9999945863995385,8.351064116796191,0.9140582622917016,0.9552489305359257
0.13359859250936168,0.016341271856028333,0.9999943664563591,8.32233400273548,0.9174039819386689,0.9499959348632399
0.1357887333701709,0.016268530280878015,0.9999941149209344,8.29061566313688,0.920619435648314,0.9447366358006344
0.1379788742309801,0.016195637853103118,0.999993824803578,8.255897161453364,0.9237096937749065,0.9394704847397504
0.1401690150917893,0.01612258631938629,0.999993486928911,8.218165412986442,0.9266796289988053,0.9341969240250552
0.14235915595259852,0.01604936723229287,0.9999930890027986,8.177406161931282,0.929533923937314,0.9289153861969004
0.14454929681340772,0.01597597193693554,0.9999926141573521,8.133603955518645,0.9322770784229003,0.9236252931965288
0.14673943767421693,0.015902391556785647,0.9999920385982913,8.08674211514136,0.934913416441405,0.9183260555297117
0.14892957853502614,0.015828616978557194,0.9999913276344695,8.036802704327929,0.937447092708542,0.9130170713853725
0.15111971939583535,0.01575463883608094,0.9999904286234915,7.983766493396492,0.9398820988357749,0.9076977257051908
0.15330986025664456,0.015680447493076413,0.9999892576232596,7.9276129205857675,0.9422222689815009,0.9023673891997855
0.15550000111745377,0.015606033024718545,0.9999876720532122,7.868320049407983,0.9444712847625331,0.8970254173066355
0.15769014197826298,0.015531385197883198,0.9999854086375399,7.805864521882702,0.9466326789100097,0.8916711490844519
0.15988028283907219,0.015456493449940694,0.9999819213833894,7.7402215071395,0.948709836366968,0.8863039060382407
0.1620704236998814,0.015381346865947752,0.9999758627793712,7.6713646444935595,0.950705989035328,0.880922990868949
0.1642605645606906,0.015305934154071395,0.9999627602652924,7.599265979471672,0.9526241905293258,0.8755276861417999
0.1664507054214998,0.0152302436193835,0.9999134277368287,7.52389590488474,0.9544672014518386,0.8701172528710449
0.16864084628230902,0.015154342077976975,8.84540763144102e-05,7.449259485985414,0.9562365386498292,0.8646909290616245
0.17083098714311823,0.015077651594896874,1.635217784626788e-05,7.343294585413412,0.8819713390199233,0.8592525595981233
0.17302112800392744,0.015000633549354549,7.395823713144605e-06,7.226199635565099,0.81346886901185,0.8538075128229634
0.17521126886473665,0.01492326526499734,4.109984964081081e-06,7.095784412812324,0.7502864302303618,0.8483577543521542
0.17740140972554586,0.014845522051886512,2.5072139389663603e-06,6.949374865543386,0.6920112454109876,0.8429060074769967
0.17959155058635506,0.014767378249182016,1.613364373520518e-06,6.783789827376687,0.6382622888331037,0.8374559587739338
0.18178169144716427,0.01468880963852078,1.0753183831269222e-06,6.595378808304411,0.588688054159529,0.8320125120209397
0.18397183230797348,0.014609798230512163,7.353899618194081e-07,6.380167961609885,0.5429643098417252,0.8265820998756822
0.1861619731687827,0.014530340784645808,5.134326691110549e-07,6.134171349622878,0.5007919958106503,0.8211730636948508
0.1883521140295919,0.014450462712937684,3.6500980853817816e-07,5.853922400737978,0.461895274379086,0.8157961131203002
0.1905422548904011,0.014370238941398703,2.6393067720445134e-07,5.537248329242082,0.42601972928539206,0.8104648783917245
0.19273239575121032,0.014289822457496708,1.9406103205437307e-07,5.184230973568879,0.39293070326478036,0.8051965694796035
0.19492253661201953,0.014209479308663895,1.4513262232121436e-07,4.79816980008998,0.36241176410873804,0.8000127562653733
0.19711267747282873,0.014129625896027306,1.1044930642977931e-07,4.38622779715811,0.334263289543268,0.7949402822997108
0.19930281833363794,0.014050861852915649,8.556270573396728e-08,3.959396719262493,0.308301161844364,0.7900123256566016
0.20149295919444715,0.013973992555861129,6.747424387480079e-08,3.531580694276387,0.28435556374250437,0.7852696592766419
0.20368310005525636,0.013900043068083259,5.4137824133417445e-08,3.117966426683966,0.26226986778972755,0.7807623830638661
0.20587324091606557,0.013830279096790365,4.4144160081227296e-08,2.7331026119759327,0.24189961195320947,0.776553131413619
0.20806338177687478,0.013766251730713493,3.6524427779542365e-08,2.38868343371026,0.22311155475206268,0.7727239456287256
0.210253522637684,0.01370982825429662,3.0632544957640767e-08,2.0903467634597077,0.2057828037683422,0.7693872302855665
0.2124436634984932,0.013663037974767842,2.6052052960667606e-08,1.8347603726010644,0.1898000118392387,0.7666868251012552
0.2146338043593024,0.013627467526080806,2.247950521954378e-08,1.612636904836182,0.17505863567543503,0.7647526218613138
0.2168239452201116,0.013603280352060255,1.9631481408712727e-08,1.4175134573283918,0.1614622520550332,0.7636066396826428
0.21901408608092082,0.013589089473172137,1.1438027700435188e-07,1.2538330321060067,0.14892192712287416,0.7631234943304928
0.21950751881869804,0.01358614056423376,1.1213504618626587e-07,1.1927276382268863,0.14623386556835766,0.7631234943280236
0.22000095155647525,0.013583255289418127,1.0993037373942801e-07,1.1344094482219118,0.14359432715483636,0.7631235262425559
0.22049438429425247,0.013580442871453546,1.0776554268405586e-07,1.078965424308073,0.14100243597409057,0.7631235769414968
0.2209878170320297,0.013577987535369948,1.0564077876660209e-07,1.0316774336569017,0.13845733192922693,0.7631236947248231
0.2214812497698069,0.013576642849418515,1.0355926852986972e-07,1.005727311328288,0.13595817044927974,0.7631257043791526
0.22197468250758412,0.01357559919907399,1.015232884837716e-07,0.983520908162969,0.1335041222089999,0.763136255894811
0.22246811524536134,0.013574854756720236,9.953249071852615e-08,0.9645428567725631,0.13109437285363248,0.7631568015868397
0.22296154798313855,0.013574461242001224,9.758717669243681e-08,0.9491815286743192,0.12872812272863177,0.7631892104670784
0.22345498072091577,0.01357450198548311,9.568896506410264e-08,0.938115115401822,0.1264045866143136,0.7632364983169144
0.22394841345869299,0.013575112277049889,9.38420837822519e-08,0.932426708601594,0.12412299346531094,0.7633038645893093
0.2244418461964702,0.013576512662707561,9.205677360617586e-08,0.9336210170959258,0.12188258615475459,0.7634011282710318
0.22493527893424742,0.013579002738705496,9.035795312778749e-08,0.941935999868552,0.11968262122313382,0.7635492258866401
0.22542871167202463,0.013582824384155645,8.879290876167352e-08,0.9497407684282505,0.11752236863184752,0.7637965647547639
0.22592214440980185,0.013588642467860275,8.740691941028532e-08,0.9480238767582059,0.11540111152134136,0.7642274998787831
0.22641557714757907,0.013597462958718297,8.621156412262726e-08,0.9397572824035474,0.11331814597317226,0.7649035241341984
0.22690900988535628,0.013609719947982312,8.519274461815423e-08,0.9291969844114981,0.11127278077579533,0.765839430766073
0.2274024426231335,0.013625473927841305,8.4330643251889e-08,0.9183331923782638,0.10926433719472332,0.7670317061684163
0.22789587536091072,0.0136446562749364,8.360675972101026e-08,0.9079859763373428,0.10729214874719546,0.7684720258656643
0.22838930809868793,0.013667156827509056,8.300523716142767e-08,0.898481003244121,0.1053555609810411,0.7701509918148474
0.22888274083646515,0.013692853718057318,8.251280850432269e-08,0.8899273807828925,0.1034539312575586,0.7720592200160613
0.22937617357424236,0.013721624418123395,8.211845663285243e-08,0.8823346798366584,0.10158662853831284,0.7741876860628414
0.22986960631201958,0.013753350075411995,8.181305470626158e-08,0.8756658089780224,0.09975303317577529,0.7765278317677018
0.2303630390497968,0.013787917197542549,8.158905020100996e-08,0.8698624526533294,0.09795253670773657,0.7790715855415156
0.230856471787574,0.013825218198768585,8.144020235288562e-08,0.864857882020848,0.09618454165542488,0.781811349500222
0.23134990452535123,0.013865151433718083,8.136136824540335e-08,0.8605835780899276,0.09444846132526331,0.7847399737358941
0.23184333726312845,0.01390762099568456,8.134832972094478e-08,0.8569726670806468,0.09274371961420236,0.7878507262715198
0.23233677000090566,0.01395253641050147,8.139765356163095e-08,0.8539616502802784,0.09106975081856296,0.7911372624272422
0.23283020273868288,0.013999812290568152,8.15065785192384e-08,0.851491197567543,0.08942599944632798,0.7945935952521239
0.2333236354764601,0.014049367981641157,8.167292398650042e-08,0.8495064200039786,0.0878119200328199,0.7982140677263023
0.2338170682142373,0.01410112721890697,8.189501616755406e-08,0.8479568530629522,0.08622697695970413,0.8019933269867062
0.23431050095201453,0.014155017800442388,8.217162847910558e-08,0.846796282721228,0.08467064427725803,0.8059263006102477
0.23480393368979174,0.014210971281661358,8.250193361090698e-08,0.8459824911519838,0.08314240552984757,0.8100081748826651
0.23529736642756896,0.014268922691896259,8.288546522426802e-08,0.8454769669123728,0.08164175358455318,0.8142343749326942
0.23579079916534618,0.01432881027292996,8.332208770063895e-08,0.8452446058366142,0.08016819046288856,0.8186005465922549
0.2362842319031234,0.014390575238587461,8.381197269461124e-08,0.8452534177000156,0.07872122717555663,0.8231025398396817
0.2367776646409006,0.014454161554142366,8.435558151783388e-08,0.8454742469935426,0.0773003835601878,0.8277363936872193
0.23727109737867783,0.014519515734143033,8.495365259872524e-08,0.8458805120662971,0.07590518812200733,0.8324983223820276
0.23776453011645504,0.014586586657229138,8.560719344023425e-08,0.8464479644186438,0.07453517787737828,0.8373847027996368
0.23825796285423226,0.01465532539654072,8.631747664420379e-08,0.8471544684438933,0.07318989820016879,0.8423920629189074
0.23875139559200947,0.014725685064389746,8.708603969388533e-08,0.8479798010468526,0.07186890267089231,0.847517071277554
0.2392448283297867,0.014797620669949016,8.791468829201081e-08,0.8489054700815678,0.0705717529285714,0.852756527316706
0.2397382610675639,0.014871088988806368,8.880550314551536e-08,0.8499145503044616,0.06929801852527549,0.8581073525317835
0.24023169380534112,0.014946048443325477,8.976085017364515e-08,0.8509915354412757,0.06804727678328444,0.8635665823550177
0.24072512654311834,0.015022458992845433,9.07833941973076e-08,0.8521222049592503,0.06681911265483077,0.8691313587022665
0.24121855928089556,0.015100282032837704,9.187611624728185e-08,0.8532935041827461,0.06561311858437409,0.8747989231234363
0.24171199201867277,0.015179480302219047,9.304233471027902e-08,0.8544934364674244,0.06442889437336184,0.8805666105017735
0.24220542475645,0.015260017798093575,9.428573061775685e-08,0.8557109662402432,0.06326604704743168,0.8864318432527056
0.2426988574942272,0.015341859697264855,9.56103774759361e-08,0.8569359318104668,0.06212419072601152,0.8923921259777252
0.24319229023200442,0.015424972283921135,9.702077613998571e-08,0.8581589669547233,0.06100294649427404,0.8984450405331681
0.24368572296978164,0.015509322882953149,9.852189535469209e-08,0.8593714303733178,0.059901942277403204,0.9045882414776354
0.24417915570755885,0.015594879798414807,1.0011921872259507e-07,0.8605653422038324,0.05882081271713125,0.9108194518652973
0.24467258844533607,0.015681612256683512,1.0181879902401295e-07,0.8617333268601619,0.05775919905050484,0.9171364593554636
0.2451660211831133,0.015769490353918468,1.0362732100825042e-07,0.8628685615404803,0.056716748990841274,0.9235371126116315
0.2456594539208905,0.015858485007452867,1.0555217400991508e-07,0.8639647298160319,0.05569311661083398,0.9300193179657288
0.24615288665866772,0.01594856791079007,1.0760153602913114e-07,0.8650159797745689,0.05468796222777019,0.936581036325573
0.24664631939644494,0.016039711491904394,1.0978447126287989e-07,0.8660168862477825,0.05370095229082145,0.9432202803055949
0.24713975213422215,0.016131888874574712,1.1211104350382723e-07,0.8669624167021266,0.05273175927037088,0.9499351115627159
0.24763318487199937,0.016225073842504115,1.1459244835496187e-07,0.8678479004170061,0.051780061549340055,0.9567236383209309
0.24812661760977658,0.016319240806001334,1.1724116787202245e-07,0.8686690006142151,0.05084554331648002,0.9635840130696337
0.2486200503475538,0.016414364771019863,1.2007115207890727e-07,0.8694216892381748,0.0499278944615915,0.9705144304220736
0.24911348308533102,0.01651042131036915,1.230980328541503e-07,0.8701022241182003,0.04902681047263953,0.9775131251215387
0.24960691582310823,0.016607386536928604,1.2633937702588355e-07,0.8707071282723641,0.04814199233472934,0.9845783701839571
0.2501003485608855,0.016705237078710345,1.2981498722822065e-07,0.8712331711377308,0.04727314643091045,0.991708475166607
0.2505937812986627,0.016803950055296436,1.3354726118389887e-07,0.8716773457016181,0.04641998444477665,0.9989017845534993
0.25108721403643997,0.01690350305134049,1.3756162184051662e-07,0.8720367855462271,0.04558222326483094,1.0061566761765093
0.2515806467742172,0.017003874094911768,1.4188703747371406e-07,0.8723088194472656,0.0447595848905843,1.0134715594157506
0.25207407951199445,0.017105041647924524,1.4655665594576795e-07,0.8724910511890315,0.043951796340359034,1.0208448741757348
0.2525675122497717,0.01720698458605464,1.5160857881001887e-07,0.8725812610579889,0.043158589560767874,1.0282750898375743
