Time [s],Lmtc [m],STIM [ ],Fsee [N],Gamma [ ],Lcerel [ ]
0.0,0.018107043468054782,0.9999990387961676,1.6407319704187164,0.09667223366738814,1.0911819245662153
0.0021602979727277714,0.018173708642399172,0.9999990760997236,3.6307301131193688,0.13137115760883558,1.091181924556398
0.004320595945455543,0.018230216090741193,0.9999991119704011,5.92836984069232,0.1647372150600325,1.0911819223780643
0.006480893918183314,0.018272726787688636,0.999999146461658,8.026321377674533,0.196821604527419,1.0911819182699345
0.008641191890911086,0.018296057287226768,0.9999991403714987,9.31253513971978,0.22767355786348908,1.091181901946546
0.010801489863638858,0.018303541604903308,0.9999990658589896,10.01845687444497,0.2573404143027508,1.0908439570866537
0.01296178783636663,0.018301631118865666,0.9999989408876837,10.513537258043609,0.2858676935980706,1.0901035508769368
0.015122085809094401,0.018293544701069538,0.9999987848372125,10.865709491884326,0.31329916767071725,1.0890950842515628
0.01728238378182217,0.018281300664363623,0.9999986068045583,11.121767396958626,0.33967692780311176,1.0879021852993846
0.019442681754549943,0.01826618124869223,0.9999984123520359,11.312619734337806,0.36504144880117184,1.0865784503684541
0.021602979727277715,0.018249019069669175,0.9999982054708674,11.458508643623267,0.38943165095123305,1.085159304707844
0.023763277700005487,0.01823036846266707,0.9999979892872992,11.572784094616331,0.41288495967248273,1.0836688625187043
0.02592357567273326,0.018210607935479503,0.999997766360077,11.664376543414354,0.43543736290512414,1.0821239885295477
0.02808387364546103,0.018190002266446934,0.9999975388254492,11.739363737858513,0.45712346630555384,1.0805367692200463
0.030244171618188802,0.018168740896603933,0.9999973084792604,11.801957501452081,0.47797654632693026,1.0789160586471447
0.03240446959091657,0.018146962197795578,0.999997076830727,11.855129289660324,0.49802860126394577,1.0772684714660603
0.03456476756364434,0.018124769162651638,0.9999968451422144,11.90101176165891,0.5173104003389122,1.0755990369008805
0.036725065536372115,0.018102239773470592,0.9999966144612527,11.941160539282643,0.535851530903864,1.0739116394356574
0.038885363509099886,0.01807943399887519,0.9999963856476307,11.97672763703629,0.5536804438307436,1.0722093221125464
0.04104566148182766,0.018056398608158733,0.9999961593969267,12.008578270437559,0.5708244971590852,1.0704944993435672
0.04320595945455543,0.018033170544867128,0.9999959362611798,12.03737079872173,0.5873099980679908,1.0687691088973508
0.0453662574272832,0.01800977933107383,0.999995716667115,12.063612284154205,0.6031622432366549,1.0670347222205796
0.047526555400010974,0.01798624880789332,0.9999955009322006,12.087697672847144,0.61840555765525,1.065292625717625
0.049686853372738746,0.01796259841389062,0.9999952892787589,12.109937808792257,0.6330633319456076,1.063543881459648
0.05184715134546652,0.017938844136781675,0.9999950818463187,12.130579725202628,0.6471580582488671,1.061789373105641
0.05400744931819429,0.01791499923080741,0.9999948787023825,12.149821522271564,0.6607113647350672,1.060029841045438
0.05616774729092206,0.01789107476377518,0.9999946798517656,12.167823401130716,0.6737440487875588,1.0582659095866846
0.05832804526364983,0.017867080038728975,0.9999944852446538,12.184715935403503,0.6862761089130822,1.0564981081990257
0.060488343236377605,0.017843022922258735,0.9999942947835103,12.20060633474722,0.6983267754264144,1.05472688827019
0.06264864120910538,0.01781891010252399,0.9999941083289544,12.21558323297699,0.7099145399566081,1.0529526364375958
0.06480893918183314,0.01779474729382098,0.9999939257047163,12.229720381054046,0.7210571838200568,1.0511756852818648
0.0669692371545609,0.017770539400101964,0.9999937467017647,12.243079519390879,0.7317718053038675,1.0493963219697153
0.06912953512728867,0.017746290646690692,0.999993571081687,12.255712629565572,0.74207484590138,1.0476147952894146
0.07128983310001644,0.017722004687147415,0.9999933985793944,12.267663712731485,0.7519821155400416,1.045831321416173
0.0734501310727442,0.0176976846905616,0.9999932289052085,12.278970204128468,0.7615088168403258,1.0440460886665714
0.07561042904547197,0.017673333413313612,0.9999930617463781,12.289664105667171,0.7706695684428881,1.0422592614425807
0.07777072701819973,0.017648953258424683,0.9999928967680648,12.29977289850716,0.7794784274397298,1.0404709835216426
0.0799310249909275,0.017624546324921508,0.9999927336138219,12.309320282767345,0.7879489109437635,1.0386813808157482
0.08209132296365526,0.017600114449116452,0.9999925719055868,12.318326780519559,0.7960940168298611,1.0368905636967873
0.08425162093638303,0.017575659239303203,0.9999924112431913,12.326810229984545,0.8039262436791862,1.0350986289656186
0.08641191890911079,0.01755118210505871,0.9999922512033887,12.334786192636805,0.8114576099574009,1.033305661526924
0.08857221688183856,0.017526684282103182,0.9999920913383814,12.34226829020178,0.8186996724561535,1.0315117358198702
0.09073251485456632,0.017502166853482777,0.9999919311738238,12.349268484914568,0.8256635440261273,1.0297169170450948
0.09289281282729409,0.017477630767693476,0.999991770206261,12.355797313625073,0.8323599106288492,1.0279212622210652
0.09505311080002185,0.017453076854248385,0.9999916078999476,12.361864084176466,0.8387990477333915,1.0261248210968354
0.09721340877274962,0.017428505837098887,0.9999914436829751,12.36747704080132,0.8449908360831246,1.024327636943463
0.09937370674547738,0.0174039183462465,0.9999912769426147,12.372643503960628,0.8509447768566737,1.022529747242476
0.10153400471820515,0.01737931492782317,0.9999911070197551,12.377369989010601,0.8566700062463347,1.0207311842866624
0.10369430269093291,0.01735469605287004,0.9999909332022899,12.381662307258214,0.8621753094762816,1.018931975705915
0.10585460066366068,0.017330062125006155,0.9999907547172628,12.385525652309832,0.8674691342820494,1.0171321449287876
0.10801489863638844,0.017305413487146922,0.9999905707215386,12.388964674092053,0.8725596038719355,1.0153317115887288
0.1101751966091162,0.01728075042740638,0.9999903802907051,12.39198354250153,0.8774545293901623,1.0135306918825386
0.11233549458184397,0.01725607318429608,0.9999901824058319,12.394586002299738,0.8821614219008791,1.0117290988874492
0.11449579255457173,0.017231381951316,0.9999899759376195,12.396775420591785,0.8866875039113156,1.0099269428422644
0.1166560905272995,0.017206676881018082,0.9999897596273387,12.398554828003588,0.8910397204517,1.0081242313971783
0.11881638850002726,0.017181958088611404,0.9999895320637978,12.39992695448744,0.8952247497288356,1.006320969836246
0.12097668647275503,0.017157225655167314,0.9999892916553524,12.40089426053505,0.8992490133695646,1.0045171612758845
0.1231369844454828,0.017132479630474935,0.9999890365956802,12.401458964452805,0.903118686269682,1.0027128068423308
0.12529728241821056,0.017107720041992708,0.9999887648216995,12.401623488712087,0.9068397060632125,1.000907905830577
0.12745758039093832,0.01708294693509945,0.9999884739624353,12.40139272037136,0.910417782226335,0.9991024561407715
0.1296178783636661,0.017058160128536896,0.9999881612755546,12.400753905760387,0.9138584048296414,0.9972964586625
0.13177817633639385,0.0170333596523711,0.999987823564405,12.399705390483199,0.9171668529517594,0.9954899174498277
0.13393847430912162,0.017008545567374852,0.999987457072665,12.398248488399693,0.9203482027666017,0.9936828355382832
0.13609877228184938,0.016983717915328794,0.999987057350134,12.39638438538007,0.9234073353159202,0.9918752147424984
0.13825907025457715,0.016958876720378904,0.9999866190783748,12.394114150532033,0.9263489439781422,0.9900670557425952
0.1404193682273049,0.01693402199026548,0.9999861358413557,12.391438746171278,0.9291775416436111,0.9882583581626255
0.14257966620003268,0.016909153717437408,0.9999855998197217,12.388359036690193,0.9318974676054024,0.9864491206418969
0.14473996417276044,0.016884271880063785,0.999985001377271,12.38487579645865,0.9345128941737013,0.9846393408999166
0.1469002621454882,0.01685937644295378,0.9999843284925084,12.380989716872147,0.9370278330202224,0.9828290157956052
0.14906056011821597,0.01683446735839375,0.9999835659630397,12.37670141264725,0.9394461412570903,0.9810181413813431
0.15122085809094374,0.016809544566910476,0.9999826942693183,12.372011427450369,0.9417715272516557,0.9792067129523799
0.1533811560636715,0.016784607997967344,0.999981687914484,12.366920238933902,0.9440075561743031,0.9773947250920372
0.15554145403639927,0.016759657570600432,0.9999805129349791,12.36142826324338,0.9461576552693879,0.9755821717131287
0.15770175200912703,0.016734693194000165,0.9999791230548063,12.355535859048684,0.9482251188280766,0.973769046095957
0.1598620499818548,0.016709714768043726,0.9999774535350858,12.349243331142771,0.95021311282245,0.9719553409232182
0.16202234795458256,0.01668472218378312,0.999975410928676,12.342550933640048,0.9521246791253469,0.9701410483121249
0.16418264592731033,0.016659715323892915,0.9999728551619868,12.33545887279267,0.9539627391745701,0.9683261598440335
0.1663429439000381,0.016634694063081854,0.9999695662838957,12.327967309422986,0.9557300968080658,0.9665106665918743
0.16850324187276586,0.01660965826847208,0.9999651780279579,12.320076360938007,0.9574294397129581,0.9646945591456969
0.17066353984549362,0.016584607799950267,0.9999590318341883,12.311786102837694,0.9590633382669165,0.9628778276367433
0.1728238378182214,0.01655954251049716,0.9999498125374846,12.30309656955648,0.960634238816713,0.9610604617607019
0.17498413579094915,0.016534462246512636,0.9999344582411397,12.294007754575228,0.9621444432210373,0.959242450801457
0.17714443376367692,0.016509366848223624,0.9999038186698156,12.284519612377178,0.9635960473051969,0.95742378365885
0.17930473173640468,0.01648425615110565,0.9998125621195267,12.2746321117839,0.9649907149086276,0.9556044488932832
0.18146502970913245,0.016459158096525744,0.7219340937597827,12.266189690929503,0.9663283046779525,0.9537844348687613
0.1836253276818602,0.016434059908050493,7.697027473730372e-05,12.257199711728788,0.9475943979710959,0.9519650227368303
0.18578562565458798,0.016408733608409956,3.1732927441675935e-05,12.227628558019672,0.8749628995993405,0.950151874558877
0.18794592362731574,0.016383491805862734,1.714208212037157e-05,12.192144741525437,0.8078955253430032,0.9483515118256346
0.1901062216000435,0.016358364358534674,1.0349221929726809e-05,12.149211733811775,0.7459681046040979,0.9465678547090272
0.19226651957277127,0.01633339062105989,6.640225076298821e-06,12.096906142735751,0.6887872302803114,0.9448059674271151
0.19442681754549904,0.016308622562869666,4.429494533639404e-06,12.032848348014092,0.6359892906631816,0.9430723752202282
0.1965871155182268,0.016284128939859834,3.0383744774639187e-06,11.95413858323118,0.5872384252779398,0.9413754586424621
0.19874741349095457,0.01626000087409102,2.1308927175220285e-06,11.857313335234528,0.542224467124611,0.9397259372246252
0.20090771146368233,0.016236359270659705,1.5238813308110774e-06,11.738344921578143,0.5006609994043882,0.9381374514848987
0.2030680094364101,0.01621336454586007,1.1105360723885105e-06,11.59271621210799,0.4622835466531748,0.9366272449896954
0.20522830740913786,0.01619122908772359,8.255214113800914e-07,11.415609509763119,0.42684789867486855,0.9352169342846528
0.20738860538186563,0.016170232606915864,6.274926680777254e-07,11.202247658733828,0.39412856027924326,0.9339333312235314
0.2095489033545934,0.01615073990791016,4.897169225953492e-07,10.948407765793103,0.36391731851592973,0.9328092470359266
0.21170920132732116,0.016133219467534526,3.9480748317967877e-07,10.651084906039845,0.33602191901860734,0.93188415988752
0.21386949930004892,0.016118259517742668,3.3177085166166786e-07,10.309213085953989,0.3102648434108437,0.9312045720088294
0.21602979727277669,0.01610704346805478,9.533484601975428e-07,9.95185946661237,0.28648218020393673,0.9308238307363825
0.21672664215719178,0.016102168606978304,9.288814106778449e-07,9.665805207931578,0.2792064843475376,0.9308238307329286
0.21742348704160688,0.016097110253563758,9.050358108988786e-07,9.37339303766447,0.27211557344410237,0.9308238313146028
0.21812033192602198,0.016091874124852974,8.817958282157886e-07,9.07543486987045,0.2652047544059174,0.9308238319165557
0.21881717681043708,0.016086467186490733,8.591460817536091e-07,8.772807437855612,0.2584694533382642,0.9308238325406246
0.21951402169485218,0.016080897694654362,8.370715812931904e-07,8.466447178198665,0.2519052125122093,0.9308238331888236
0.22021086657926728,0.016075175150698826,8.155577173488451e-07,8.157339273405375,0.2455076874142765,0.9308238338633583
0.22090771146368238,0.016069310232931573,7.945902514975963e-07,7.846505363312629,0.2392726438710494,0.9308238345666517
0.22160455634809748,0.016063314706444305,7.741553069536838e-07,7.534990238881082,0.23319595524680314,0.9308238353013644
0.22230140123251257,0.016057201312695033,7.542393593821445e-07,7.2238478802049,0.2272735997123088,0.9308238360704228
0.22299824611692767,0.016050983641246935,7.348292279454585e-07,6.914127232206204,0.2215016575830036,0.9308238368770488
0.22369509100134277,0.016044675986691397,7.159120665774101e-07,6.606858124263734,0.21587630872476565,0.9308238377247925
0.22439193588575787,0.016038293194274737,6.974753554784625e-07,6.303037733002975,0.2103938300255744,0.9308238386175736
0.22508878077017297,0.01603185049808603,6.795068928270982e-07,6.003617961168256,0.2050505929313865,0.9308238395597238
0.22578562565458807,0.0160253633558302,6.619947867017151e-07,5.709494061838555,0.19984306104459268,0.930823840556038
0.22648247053900317,0.016018847284202466,6.449274472078038e-07,5.421494779377927,0.1947677877834695,0.9308238416118334
0.22717931542341827,0.016012317698704096,6.282935788052682e-07,5.140374210470967,0.18982141410107403,0.9308238427330182
0.22787616030783336,0.016005789761413165,6.120821728308761e-07,4.866805514918381,0.1850006662620741,0.9308238439261701
0.22857300519224846,0.01599927823977427,5.962825002109429e-07,4.601376531190293,0.18030235367604067,0.9308238451986285
0.22926985007666356,0.015992797378929266,5.808841043594887e-07,4.344587280371785,0.17572336678577055,0.9308238465586031
0.22996669496107866,0.015986360789512866,5.658767942572079e-07,4.096849277778414,0.17126067500923914,0.9308238480153019
0.23066353984549376,0.0159799813522167,5.512506377067255e-07,3.85848651699483,0.1669113247338234,0.9308238495790854
0.23136038472990886,0.015973671139816143,5.369959547597271e-07,3.6297379482440824,0.162672437361467,0.9308238512616464
0.23205722961432396,0.01596744135678349,5.23103311311662e-07,3.4107612426792357,0.15854120740349237,0.9308238530762297
0.23275407449873906,0.015961302296101116,5.095635128598586e-07,3.2016376163338447,0.15451490062380135,0.9308238550378979
0.23345091938315415,0.015955263312454435,4.963675984210079e-07,3.0023774812380473,0.15059085222923224,0.9308238571638568
0.23414776426756925,0.015949332810635902,4.835068346041254e-07,2.8129266951846055,0.14676646510587918,0.9308238594738573
0.23484460915198435,0.015943518247730878,4.7097270983523835e-07,2.6331731940169045,0.14303920810020346,0.9308238619906926
0.23554145403639945,0.015937826147481605,4.587569287302441e-07,2.46295380913557,0.13940661434380094,0.9308238647408269
0.23623829892081455,0.01593226212513054,4.4685140661258346e-07,2.302061096195446,0.13586627962071662,0.9308238677551934
0.23693514380522965,0.015926830921020006,4.3524826417265013e-07,2.150250026833157,0.1324158607762244,0.9308238710702232
0.23763198868964475,0.0159215364412603,4.2393982226620606e-07,2.0072444220954497,0.12905307416602096,0.9308238747291846
0.23832883357405985,0.015916381803862782,4.129185968495791e-07,1.872743032680139,0.1257756941448058,0.930823878783968
0.23902567845847494,0.01591136938885587,4.0217729405014816e-07,1.746425196118947,0.12258155159324813,0.930823883297479
0.23972252334289004,0.015906500891053655,3.917088053717724e-07,1.6279560238987407,0.1194685324823647,0.930823888346941
0.24041936822730514,0.015901777374320688,3.8150620303668343e-07,1.5169910918135303,0.11643457647435909,0.9308238940285286
0.24111621311172024,0.01589719932637431,3.7156273546859916e-07,1.4131806244413154,0.11347767555899656,0.9308239004640453
0.24181305799613534,0.015892766713398062,3.61871822927636e-07,1.3161731797556901,0.11059587272461126,0.9308239078108286
0.24250990288055044,0.015888479034041787,3.524270533188034e-07,1.225618853206379,0.10778726066286703,0.9308239162769683
0.24320674776496554,0.01588433537285462,3.432221782187749e-07,1.1411720338249378,0.1050499805064136,0.9308239261456336
0.24390359264938063,0.015880334454111016,3.342511092163036e-07,1.062493762354398,0.10238222059860383,0.9308239378159928
0.24460043753379573,0.015876474699183345,3.2550791478501014e-07,0.989253775748629,0.09978221529445672,0.9308239518763951
0.24529728241821083,0.015872754297027288,3.169868182471516e-07,0.9211324176257137,0.09724824379207336,0.9308239692460755
0.24599412730262593,0.015869171320452794,3.086821984962711e-07,0.8578229376505867,0.09477862899373173,0.9308239914800456
0.24669097218704103,0.01586572403079839,3.0058859980029994e-07,0.7990363543512224,0.09237173639590762,0.9308240215298268
0.24738781707145613,0.015862412340860735,2.927007870923215e-07,0.7445236189254203,0.09002597300748597,0.9308240661241807
0.24808466195587123,0.015859261185526795,2.8501448298126055e-07,0.6944331942194369,0.0877397862954491,0.9308241469322872
0.24878150684028633,0.015857198984512464,2.775515690315016e-07,0.662542907517428,0.0855116631573602,0.9308244577990606
0.24947835172470142,0.015855943195898052,2.7034688290731327e-07,0.6421191922294761,0.08334012892058401,0.9308313001896168
0.2501751966091165,0.01585511269021125,2.6341671588436265e-07,0.6259181051160038,0.08122374636658888,0.9308499200183559
0.2508720414935316,0.015854808033739645,2.567805371277749e-07,0.6144840267187038,0.0791611147792297,0.9308841965574743
0.25156888637794667,0.015855223072591067,2.504953456540154e-07,0.6090688060592963,0.07715086901775368,0.9309413824438894
0.25226573126236174,0.01585669235148776,2.4472591333259113e-07,0.611305888798592,0.07519167861422232,0.9310373366660208
0.2529625761467768,0.015859520732173976,2.3989886318367155e-07,0.6172370781172836,0.07328224689564042,0.9312140563670446
0.2536594210311919,0.01586429991320943,2.3654081561473476e-07,0.6144727923074003,0.07142131013229434,0.9315761126683689
0.25435626591560695,0.015872532014350103,2.3482476957316834e-07,0.6048364861998802,0.06960763670360973,0.93222416008064
0.255053110800022,0.015884789522338207,2.3459261343436706e-07,0.5932488850569696,0.06784002627367383,0.9331758497267431
0.2557499556844371,0.015901031627614595,2.3564707719444264e-07,0.5816023750737176,0.06611730898826933,0.9344188476630553
0.25644680056885216,0.015921061144293987,2.3783297461154476e-07,0.5705408912486886,0.06443834469971627,0.9359354899962419
0.25714364545326723,0.015944647767182376,2.410391471460053e-07,0.5602714686886509,0.06280202221346463,0.9377078430631258
0.2578404903376823,0.0159715616375029,2.4519023824365353e-07,0.5508346409945385,0.06120725855387126,0.9397188416300345
0.2585373352220974,0.016001583521006543,2.502392754172372e-07,0.5422036555699202,0.05965299824841502,0.941952547130975
0.25923418010651245,0.016034507793518664,2.561622751929433e-07,0.5343249140993002,0.05813821262990319,0.9443941650410985
0.2599310249909275,0.016070142911460496,2.6295460168924e-07,0.5271357360222193,0.05666189915626277,0.9470299888497449
0.2606278698753426,0.01610831094158118,2.706286826411892e-07,0.5205724841182842,0.0552230807475155,0.9498473226833606
0.26132471475975766,0.01614884674427462,2.792127795307882e-07,0.5145742839213205,0.05382080513953364,0.9528344006569806
0.26202155964417273,0.016191597053347377,2.8875061537043387e-07,0.5090846229522625,0.05245414425417795,0.9559803095439113
0.2627184045285878,0.016236419555848605,2.993017522022178e-07,0.5040518981807294,0.051122193585423095,0.9592749170578537
0.26341524941300287,0.01628318201608686,3.109426823022974e-07,0.4994294376461714,0.049824071601083514,0.9627088063274476
