Time [s],Lmtc [m],STIM [ ],Fsee [N],Gamma [ ],Lcerel [ ]
0.0,0.019188088230693366,0.9999998033015876,0.643576048934836,0.06268822516704156,1.1737033220905768
0.0014507059520389922,0.019235448618386806,0.9999998086674446,1.5523078793532568,0.08702143504381483,1.1737033220832018
0.0029014119040779844,0.01927931205373512,0.9999998113068342,2.7451236925200013,0.11072293932113629,1.1737033158237382
0.004352117856116977,0.01930083583285871,0.9999998029303856,3.5855687369842064,0.13380913741084216,1.1734303924167422
0.005802823808155969,0.019304117572923885,0.9999997801681352,4.3493027323858735,0.1562960027703216,1.1721762220316192
0.007253529760194961,0.019294074728934556,0.9999997469167822,4.9967472758334255,0.17819909408827694,1.1702783547062614
0.008704235712233954,0.019274540975138678,0.9999997050935054,5.525111704920338,0.19953356624103055,1.1679581147443647
0.010154941664272946,0.019248256081067387,0.9999996559430279,5.94822401650025,0.22031418072436368,1.1653548681291779
0.01160564761631194,0.019217162685364324,0.9999996004381692,6.285793455666357,0.24055531584847067,1.1625574580129936
0.013056353568350932,0.019182622339117533,0.9999995394141988,6.556818235856559,0.2602709766786443,1.1596237212220712
0.014507059520389925,0.019145585867375386,0.999999473616111,6.777093370637856,0.27947480472138136,1.1565922538576396
0.015957765472428918,0.01910671995451612,0.9999994037150696,6.958881112147528,0.2981800873602593,1.1534894699127376
0.01740847142446791,0.019066496349252195,0.9999993303142536,7.111397834216167,0.3163997670472771,1.1503338836117618
0.018859177376506903,0.019025252899508502,0.9999992539516036,7.241477398077155,0.33414645025573564,1.147138758591796
0.020309883328545896,0.018983234803915727,0.9999991751021583,7.354171311658437,0.35143241620076654,1.14391378456193
0.02176058928058489,0.018940622456768585,0.9999990941807989,7.4532241521471105,0.36826962533353197,1.140666163650427
0.023211295232623882,0.01889755034541047,0.9999990115455105,7.541428964764045,0.3846697276149791,1.1374013305315371
0.024662001184662875,0.01885411999530672,0.9999989275010276,7.620885937657727,0.40064407057488877,1.1341234402167517
0.026112707136701867,0.018810408940066463,0.9999988423026692,7.693188603016281,0.41620370716180005,1.130835705195415
0.02756341308874086,0.018766477015479646,0.9999987561601916,7.7595575323967,0.4313594033892446,1.1275406328381041
0.029014119040779853,0.018722370833291372,0.9999986692415161,7.820936561767764,0.4461216457835824,1.1242401954665326
0.030464824992818846,0.018678127002310523,0.9999985816762341,7.878062412864245,0.4605006486385811,1.120935954129508
0.031915530944857835,0.01863377447689974,0.9999984935588192,7.9315154155429095,0.474506361081753,1.117629150006251
0.03336623689689683,0.01858933629007599,0.9999984049515089,7.98175675191582,0.4881484739573307,1.1143207728131428
0.03481694284893582,0.01854483084733128,0.9999983158868302,8.029156031342698,0.5014364265306288,1.1110116126343317
0.036267648800974814,0.018500272903163414,0.9999982263697621,8.074011879737702,0.5143794130184243,1.1077022996412487
0.03771835475301381,0.018455674305808422,0.9999981363795314,8.116567442903262,0.5269863889498562,1.1043933348514299
0.0391690607050528,0.018411044221277734,0.9999980458710469,8.157003454742343,0.5392660773622431,1.1010851141795939
0.04061976665709179,0.018366388635150173,0.9999979547759722,8.195396392398406,0.5512269748360885,1.0977779474125549
0.042070472609130785,0.018321713443137003,0.9999978630034434,8.231872029370535,0.5628773573734407,1.0944720733035147
0.04352117856116978,0.018277023491149295,0.9999977704404278,8.266545161705627,0.5742252861236679,1.0911676716714904
0.04497188451320877,0.018232322582727015,0.9999976769517225,8.29951248042836,0.5852786129605936,1.087864873168882
0.046422590465247764,0.018187613655488367,0.999997582379578,8.330855896702703,0.5960449859148502,1.0845637672183088
0.047873296417286756,0.018142898923603774,0.9999974865429324,8.360645180072316,0.606531854465193,1.0812644085009138
0.04932400236932575,0.018098179993555015,0.9999973892362275,8.388940064972232,0.6167464746924295,1.0779668222901486
0.05077470832136474,0.018053457958736294,0.999997290227769,8.41579194288613,0.6266959142995182,1.0746710088590186
0.052225414273403735,0.018008733477183392,0.9999971892575815,8.441245229536882,0.6363870575013006,1.0713769471389356
0.05367612022544273,0.017964006835760545,0.9999970860346927,8.465338475640788,0.6458266097872343,1.0680845977703441
0.05512682617748172,0.01791927800341067,0.9999969802337593,8.488105274104473,0.6550211025604153,1.0647939056561917
0.05657753212952071,0.017874546675520714,0.9999968714909276,8.509575004720173,0.6639768976560794,1.0615048021067817
0.058028238081559706,0.01782981231102851,0.9999967593987912,8.529773448425882,0.6727001917426922,1.058217206647039
0.0594789440335987,0.01778507416356812,0.9999966435002644,8.54872329632004,0.6811970206086554,1.0549310285434899
0.06092964998563769,0.017740331307693407,0.9999965232811512,8.566444573327288,0.6894732633375638,1.0516461680974152
0.062380355937676685,0.01769558266101858,0.9999963981611192,8.582954992314797,0.6975346463748835,1.0483625177420732
0.06383106188971567,0.017650827002955234,0.9999962674827085,8.598270251268955,0.7053867474888155,1.0450799629750152
0.06528176784175466,0.017606062990599494,0.9999961304979001,8.612404283646129,0.7130349996280532,1.0417983831510274
0.06673247379379364,0.01756128917222225,0.9999959863516197,8.625369470047087,0.7204846946790373,1.038517652156808
0.06818317974583263,0.017516503998734716,0.999995834061366,8.637176817812222,0.727740987125243,1.0352376389848774
0.06963388569787161,0.017471705833436765,0.999995672491885,8.647836113900745,0.7348088976109429,1.0319582082213168
0.0710845916499106,0.01742689296030253,0.9999955003234542,8.657356055432595,0.7416933164117904,1.0286792204595188
0.07253529760194959,0.017382063591015184,0.999995316011839,8.6657443614821,0.7483990068144867,1.0254005326501727
0.07398600355398857,0.017337215870927555,0.999995117737276,8.67300786907678,0.7549306084076642,1.0221219983960896
0.07543670950602756,0.017292347884096747,0.9999949033388287,8.679152615840515,0.7612926402860167,1.0188434681991199
0.07688741545806654,0.017247457657516917,0.9999946702289976,8.684183911302766,0.7674895041695425,1.0155647896652975
0.07833812141010553,0.017202543164655006,0.9999944152813088,8.6881063985555,0.7735254874395914,1.0122858076734187
0.07978882736214452,0.01715760232837777,0.9999941346803641,8.690924107660688,0.7794047660931792,1.0090063645114666
0.0812395333141835,0.01711263302334484,0.9999938237188849,8.692640501982872,0.7851314076167113,1.005726299984645
0.08269023926622249,0.0170676330789358,0.9999934765185402,8.69325857393409,0.7907093737798331,1.0024454514982164
0.08414094521826147,0.01702260074601586,0.9999930856413208,8.692806552907465,0.7961425233495043,0.9991636541560107
0.08559165117030046,0.016977532662167696,0.9999926415417939,8.691208592301143,0.8014346147235262,0.99588076306829
0.08704235712233944,0.016932426516784466,0.9999921317540041,8.688415426994517,0.8065893084814789,0.9925966752524903
0.08849306307437843,0.016887280940502673,0.9999915396680371,8.684428232764695,0.811610169848327,0.98931129010481
0.08994376902641742,0.016842094527382695,0.9999908426467711,8.679247852388164,0.8165006710623084,0.9860245051199279
0.0913944749784564,0.016796865835961152,0.9999900090139254,8.672874813361618,0.8212641936324597,0.98273621594516
0.09284518093049539,0.016751593390105592,0.999988993035583,8.665309343367028,0.8259040304593472,0.9794463164239203
0.09429588688253437,0.01670627567969015,0.9999877261409033,8.656551383738107,0.8304233877704532,0.9761546986294849
0.09574659283457336,0.016660911161107652,0.9999861006246931,8.646600601137072,0.8348253867774148,0.9728612528898989
0.09719729878661235,0.01661549825763163,0.9999839370701343,8.635456397596174,0.8391130648671442,0.9695658678047976
0.09864800473865133,0.016570035359639267,0.9999809127293683,8.623117919005288,0.8432893759163108,0.9662684302548343
0.10009871069069032,0.016524520824703508,0.999976382648595,8.609584061999207,0.8473571887383935,0.9629688254043874
0.1015494166427293,0.01647895297755934,0.9999688438136404,8.594853478945193,0.8513192809273865,0.9596669366983083
0.10300012259476829,0.016433330109950343,0.9999537969164014,8.578924580438963,0.8551783189503394,0.9563626458539761
0.10445082854680728,0.0163876504805252,0.9999088611563758,8.561795541985603,0.8589367832473499,0.9530558328521719
0.10590153449884626,0.016341925680164328,0.7279651852562198,8.544196274969037,0.8625965088505713,0.9497463759475665
0.10735224045088525,0.01629612635721625,4.0018079118082795e-05,8.524233600160047,0.8555759654786526,0.9464346601301229
0.10880294640292423,0.016250001835218863,1.755121078997287e-05,8.486404609181205,0.8109624370127286,0.9431231181438648
0.11025365235496322,0.016203826579448043,1.013581636258999e-05,8.443899825881534,0.7686742203752186,0.9398142497203166
0.1117043583070022,0.016157599792987823,6.554761534152669e-06,8.396083502450013,0.7285908412858616,0.9365088984796841
0.11315506425904119,0.016111321214229965,4.508539683103216e-06,8.342219740195436,0.6905975229558754,0.9332080987571962
0.11460577021108018,0.016064991367363488,3.223396761775805e-06,8.281463502629181,0.6545853540053145,0.9299131118869942
0.11605647616311916,0.016018611913531638,2.36645552462089e-06,8.21285368893859,0.6204510621601065,0.9266254689067116
0.11750718211515815,0.015972186143160583,1.771245122384217e-06,8.135310048284893,0.5880967431772377,0.9233470206775186
0.11895788806719713,0.015925719659550596,1.3455585652192636e-06,8.047636189842633,0.5574295895930096,0.9200799964771816
0.12040859401923612,0.015879221316567327,1.0344166306575214e-06,7.948531539315357,0.5283616288114403,0.9168270721740751
0.1218592999712751,0.01583270448655678,8.03172646812117e-07,7.8366156469778865,0.5008094729193769,0.9135914490966341
0.12331000592331409,0.01578618874601213,6.290409304458824e-07,7.710468598243505,0.47469408066708696,0.9103769446468056
0.12476071187535308,0.015739702072174743,4.965245755705861e-07,7.568691169756362,0.4499405314191969,0.9071880955299305
0.12621141782739206,0.015693283637933382,3.9479772778627853e-07,7.409987486531654,0.4264778106550959,0.9040302741368454
0.12766212377943106,0.0156469872676154,3.1613253379318573e-07,7.233270905265927,0.40423860651844595,0.9009098180519689
0.12911282973147006,0.015600885564244361,2.549149375436491e-07,7.037790380188952,0.3831591168940967,0.8978341717935228
0.13056353568350906,0.015555074632701608,2.0700757164395836e-07,6.823269616757278,0.36317886649412884,0.8948120386268688
0.13201424163554806,0.015509679201323328,1.6932521205840188e-07,6.590045333471673,0.3442405334491781,0.8918535385370048
0.13346494758758706,0.015464857795304324,1.395447754036302e-07,6.339185089649154,0.32628978492044775,0.888970366138826
0.13491565353962606,0.015420807462236254,1.159029575396254e-07,6.072561296830783,0.3092751212690185,0.8861759394746428
0.13636635949166506,0.015377767433382592,9.705241542236157e-08,5.792858521573984,0.29314772834078495,0.8834855275531699
0.13781706544370406,0.015336021077046895,8.195792923173747e-08,5.503497896816176,0.2778613374468607,0.8809163418418458
0.13926777139574306,0.015295895615121957,6.982041214029874e-08,5.208475599418618,0.2633720926402408,0.8784875762574206
0.14071847734778206,0.015257759351456365,6.002068281260186e-08,4.912129064987106,0.2496384249096877,0.8762203839458931
0.14216918329982106,0.015222016526791268,5.207754720455594e-08,4.618858109493485,0.23662093293115954,0.8741377891640855
0.14361988925186006,0.015189100093278451,4.561648023743463e-08,4.332828983113319,0.22428227003556575,0.8722645436530778
0.14507059520389906,0.01518808823068984,1.3120964762318147e-07,5.2100045702659905,0.21258703706923546,0.8706269210087242
0.14555328706860343,0.015183678770900383,1.2871560516112504e-07,5.023131926818631,0.208832520671783,0.8706269210063082
0.1460359789333078,0.015179266439520915,1.2626561450232654e-07,4.839553255432133,0.20514431620016146,0.8706269219377424
0.14651867079801217,0.015174856224070547,1.238588954399892e-07,4.659477464493467,0.20152125245919095,0.8706269229166009
0.14700136266271654,0.0151704529086904,1.2149468372412672e-07,4.483089431066137,0.19796217893923382,0.8706269239468519
0.14748405452742092,0.015166061163117564,1.1917222860312555e-07,4.310554808415669,0.19446596545084896,0.8706269250328886
0.1479667463921253,0.015161685524536755,1.1689079258538036e-07,4.142019851299905,0.19103150176589764,0.8706269261795899
0.14844943825682966,0.01515733038119641,1.1464965120515284e-07,3.977611424308174,0.18765769726498926,0.8706269273923912
0.14893213012153403,0.015152999957866986,1.1244809279257928e-07,3.8174371818440838,0.1843434805911533,0.8706269286773709
0.1494148219862384,0.015148698303187765,1.1028541824775788e-07,3.6615859063502687,0.18108779930962843,0.8706269300413503
0.14989751385094277,0.015144429278918995,1.0816094081884734e-07,3.5101279898221156,0.17788961957365979,0.8706269314920175
0.15038020571564714,0.01514019655108835,1.0607398588411221e-07,3.3631160425503146,0.17474792579619955,0.8706269330380793
0.1508628975803515,0.015136003582995656,1.0402389073785038e-07,3.2205856123525196,0.17166172032740548,0.870626934689441
0.15134558944505588,0.015131853630017886,1.0201000438014652e-07,3.082555997280213,0.16863002313783607,0.8706269364574359
0.15182828130976025,0.015127749736137138,1.0003168731039421e-07,2.9490311348760545,0.1656518715072402,0.8706269383551083
0.15231097317446463,0.015123694732098888,9.808831132453958e-08,2.8200005514748963,0.16272631971884383,0.8706269403975707
0.152793665039169,0.015119691235095331,9.6179259316005e-08,2.695440355737879,0.15985243875903632,0.8706269426024601
0.15327635690387337,0.015115741649859994,9.430392508026392e-08,2.575314261539487,0.1570293160223606,0.8706269449905286
0.15375904876857774,0.01511184817105429,9.246171312305401e-08,2.4595746264457903,0.154256055021714,0.8706269475864148
0.1542417406332821,0.015108012786825366,9.065203847224063e-08,2.348163493290802,0.1515317751036669,0.8706269504196731
0.15472443249798648,0.015104237283417084,8.887432649338372e-08,2.241013623742008,0.1488556111688104,0.8706269535261673
0.15520712436269085,0.015100523250724106,8.71280127091244e-08,2.138049514235593,0.14622671339704232,0.8706269569499926
0.15568981622739522,0.015096872088694943,8.541254262261738e-08,2.0391883862695046,0.14364424697770561,0.8706269607461978
0.1561725080920996,0.01509328501451886,8.372737154542863e-08,1.944341144846914,0.14110739184449259,0.8706269649847279
0.15665519995680396,0.01508976307058633,8.20719644306723e-08,1.8534133010783516,0.138615342415032,0.8706269697563194
0.15713789182150834,0.015086307133321965,8.044579571285737e-08,1.7663058581197166,0.13616730733507493,0.8706269751816295
0.1576205836862127,0.015082917923227291,7.884834915736227e-08,1.6829161651687683,0.13376250922719893,0.8706269814260076
0.15810327555091708,0.01507959601704345,7.727911772572301e-08,1.6031387561744093,0.1314001844439505,0.8706269887246437
0.15858596741562145,0.015076341864498934,7.573760347108218e-08,1.526866220905498,0.12907958282534782,0.870626997428319
0.15906865928032582,0.015073155816998442,7.42233175013919e-08,1.453990252657204,0.12679996746066624,0.8706270080939412
0.1595513511450302,0.01507003819443114,7.273578012758381e-08,1.3844033902136585,0.12456061445443105,0.8706270216852487
0.16003404300973456,0.015066989514133308,7.127452167503942e-08,1.318003928919063,0.12236081269654327,0.870627040096159
0.16051673487443893,0.01506401188018576,6.983908717860266e-08,1.254724125204693,0.12019986363646566,0.8706270679125
0.1609994267391433,0.015061181339949933,6.842922520073743e-08,1.1960057677182063,0.11807708106139703,0.8706271220503066
0.16148211860384767,0.015059541269101648,6.7047338740322e-08,1.1624860156184835,0.11599179087836743,0.8706276622011476
0.16196481046855205,0.015058352960180953,6.569599576762732e-08,1.1365007496611668,0.11394333090022599,0.8706353350553662
0.16244750233325642,0.015057453493952518,6.437532651595504e-08,1.1139719406133364,0.1119310506353638,0.8706523958417827
0.1629301941979608,0.015056887023981653,6.308547900980414e-08,1.0952441256958132,0.10995431108110534,0.8706804268905547
0.16341288606266516,0.015056724965193787,6.182746894480116e-08,1.0809516039558207,0.1080124845207922,0.8707219178082046
0.16389557792736953,0.015057081979747483,6.060394094312175e-08,1.0721267929750247,0.10610495432446544,0.8707810283474092
0.1643782697920739,0.015058148117855205,5.942111511497743e-08,1.0703842400229393,0.10423111475308225,0.8708652884748561
0.16486096165677827,0.015060222438530908,5.829426990458226e-08,1.0774369965582467,0.10239037076622433,0.8709900090983311
0.16534365352148264,0.01506360279239621,5.725894431915833e-08,1.089629424216066,0.10058213783329976,0.8711908353767497
0.165826345386187,0.015068672770179706,5.6365026189978575e-08,1.093135622769233,0.09880584174827722,0.8715473281390748
0.16630903725089138,0.015076597859393836,5.56411929260321e-08,1.085837014091522,0.09706091844758762,0.8721521879901205
0.16679172911559575,0.015088183069917382,5.5083730236061225e-08,1.0738860861516686,0.09534681383061422,0.8730413706890973
0.16727442098030013,0.015103621010428152,5.4677007554606846e-08,1.0607125088127494,0.09366298358315582,0.8742162443647007
0.1677571128450045,0.015122873068688487,5.4405177111495036e-08,1.0477236820381313,0.09200889300436915,0.8756687348011356
0.16823980470970887,0.015145827869483987,5.425472856342017e-08,1.0354877163000618,0.0903840168369748,0.8773885443709109
0.16872249657441324,0.015172352184546604,5.421469216610883e-08,1.0242204636633736,0.08878783910050715,0.8793650866091436
0.1692051884391176,0.01520230868331548,5.427636135808168e-08,1.0139801065166194,0.08721985292751255,0.8815880697180779
0.16968788030382198,0.01523556268288754,5.443295864564032e-08,1.0047510800090511,0.08567956040263643,0.8840476804862092
0.17017057216852635,0.015271984792584643,5.4679341320914243e-08,0.9964831202471459,0.08416647240454567,0.8867346321117834
0.17065326403323072,0.01531145186953585,5.5011763528299575e-08,0.9891105368844214,0.08268010845063863,0.8896401610469423
0.1711359558979351,0.015353847230069911,5.542769102112614e-08,0.9825621122917779,0.08121999654449283,0.8927560040225885
0.17161864776263946,0.01539906052095354,5.5925660810758806e-08,0.9767662871725186,0.07978567302600431,0.8960743677859302
0.17210133962734384,0.01544698743584369,5.650517821411398e-08,0.9716538641544782,0.07837668242417122,0.8995878969277846
0.1725840314920482,0.015497529366589918,5.716664520891159e-08,0.9671593592359519,0.07699257731247541,0.9032896421858054
0.17306672335675258,0.015550593034283978,5.791131552149422e-08,0.9632216000144083,0.07563291816681755,0.9071730302743992
0.17354941522145695,0.015606090122903682,5.87412732369972e-08,0.9597839001951571,0.07429727322596001,0.9112318356660696
0.17403210708616132,0.01566393692706159,5.965943290275e-08,0.9567939970362868,0.07298521835443468,0.9154601544462132
0.1745147989508657,0.01572405401935045,6.066956013007654e-08,0.9542038598052683,0.0716963369078718,0.9198523802155105
0.17499749081557006,0.015786365939513988,6.177631264287175e-08,0.9519694327325684,0.0704302196007078,0.924403181943381
0.17548018268027443,0.015850800905886003,6.298530263268306e-08,0.9500503499892832,0.0691864643762304,0.9291074836448335
0.1759628745449788,0.01591729054857112,6.430318221988405e-08,0.9484096447908908,0.06796467627892012,0.9339604457425377
0.17644556640968317,0.01598576966333174,6.573775485302319e-08,0.9470134654192831,0.06676446732904802,0.9389574479761814
0.17692825827438755,0.016056175984900636,6.729811667643099e-08,0.945830805276128,0.06558545639949,0.9440940737269117
0.17741095013909192,0.016128449978346254,6.899483334820969e-08,0.9448332505996098,0.06442726909471959,0.9493660956330182
0.1778936420037963,0.01620253464711204,7.08401596103585e-08,0.9439947473460892,0.06328953763194088,0.9547694623823756
