Time [s],Lmtc [m],STIM [ ],Fsee [N],Gamma [ ],Lcerel [ ]
0.0,0.021051416595563362,0.9999998206338201,1.020887878981529,0.06480604874795427,1.307901216836227
0.0024562668081738468,0.021088272304313545,0.9999997984565729,1.8378247041596014,0.10554195953749512,1.3079012168238904
0.0049125336163476935,0.021050990388734182,0.9999997224509765,2.863532056095334,0.14450346230472272,1.302565352170849
0.00736880042452154,0.020984598112648623,0.9999996139838777,3.6336119782116723,0.1817678457745508,1.296060964816035
0.009825067232695387,0.020904064443456077,0.9999994807247679,4.173726149191372,0.21740903299912162,1.2891267789024563
0.012281334040869233,0.020816806902339186,0.9999993301415554,4.565891276602218,0.25149772736581133,1.2820365994506808
0.014737600849043079,0.020726471321381484,0.9999991688056469,4.869999889067536,0.28410155283315675,1.2749073293152997
0.017193867657216925,0.02063486398193812,0.9999990021212242,5.120743410720442,0.31528518802800487,1.2677936239596979
0.01965013446539077,0.020542908277984145,0.9999988343256617,5.337448584705655,0.34511049448975983,1.2607223133837526
0.022106401273564617,0.020451090564069952,0.999998668616516,5.531076728270725,0.37363663932848423,1.253706605322628
0.024562668081738463,0.020359670910399173,0.9999985073210444,5.70807314271469,0.40092021254569354,1.24675258173974
0.02701893488991231,0.02026878691415908,0.9999983520659681,5.872386452512714,0.4270153392521814,1.2398624215562388
0.029475201698086154,0.0201785073062035,0.9999982039289436,6.026537315468295,0.45197378700516694,1.2330361038451858
0.031931468506260004,0.02008886091321203,0.9999980635657408,6.172199614166387,0.47584506847656477,1.22627235328483
0.03438773531443385,0.019999852949180087,0.9999979313132087,6.31052703908917,0.4986765396546862,1.2195691851362276
0.036844002122607696,0.01991147450237914,0.9999978072707066,6.442342829326261,0.5205134937728814,1.2129242283104145
0.03930026893078154,0.019823708221493534,0.9999976913634834,6.568253604977471,0.5413992511503064,1.2063349206317269
0.04175653573895539,0.019736531803637176,0.9999975833914345,6.688719749270518,0.5613752451220996,1.1997986281441557
0.04421280254712923,0.019649920172025343,0.9999974830662725,6.804100163320101,0.5804811042286654,1.1933127181133216
0.04666906935530308,0.01956384685184085,0.9999973900396412,6.9146814754241355,0.5987547308265099,1.1868746032275919
0.049125336163476925,0.019478284844424994,0.9999973039242187,7.020697571199321,0.6162323762761104,1.1804817676104582
0.05158160297165077,0.019393207181666046,0.9999972243094248,7.122342949426969,0.6329487128556099,1.1741317812249186
0.05403786977982462,0.019308587273391235,0.9999971507729934,7.219782049824335,0.648936902542723,1.1678223068285358
0.05649413658799846,0.019224399119171273,0.9999970828893859,7.3131558973909465,0.664228662801088,1.1615511021484621
0.05895040339617231,0.019140617430549765,0.9999970202357947,7.402586923877864,0.6788543295014139,1.1553160190111742
0.061406670204346155,0.019057217693801858,0.9999969623963114,7.488182528110795,0.6928429171021168,1.1491150005649555
0.06386293701252001,0.018974176193174028,0.9999969089646957,7.570037748664837,0.7062221762087426,1.142946077346344
0.06631920382069385,0.018891470007969504,0.9999968595460816,7.648237301548806,0.7190186486262942,1.1368073626877744
0.0687754706288677,0.018809076992505874,0.9999968137578709,7.722857156596687,0.7312577200136164,1.1306970477950562
0.07123173743704155,0.018726975745077378,0.9999967712300059,7.7939657738073596,0.7429636702442605,1.1246133967104583
0.07368800424521539,0.018645145570101364,0.9999967316047662,7.861625085479415,0.7541597215737033,1.118554741301071
0.07614427105338924,0.018563566436297384,0.9999966945361939,7.925891285753979,0.7648680847084471,1.112519476360595
0.07860053786156308,0.01848221893283271,0.9999966596892262,7.986815472355464,0.775110002868386,1.106506054877729
0.08105680466973693,0.01840108362294772,0.9999966267385917,8.044412193419477,0.7849057939298266,1.1005129835005794
0.08351307147791077,0.01832013684213927,0.9999965953675055,8.098437673713143,0.7942748907327638,1.0945388182104778
0.08596933828608462,0.018239359612133195,0.9999965652661886,8.148865405628449,0.803235879632363,1.0885821602077967
0.08842560509425847,0.01815873467703285,0.9999965361302187,8.195733640535543,0.8118065373711203,1.0826416520052187
0.09088187190243231,0.018078245167627537,0.9999965076587145,8.23907708128682,0.820003866344848,1.0767159737192498
0.09333813871060616,0.017997874562026134,0.9999964795523405,8.278927116514689,0.8278441283324331,1.070803839547861
0.09579440551878,0.017917606647438734,0.9999964515111132,8.31531202123562,0.8353428767562832,1.064903994420363
0.09825067232695385,0.01783742548307239,0.9999964232319761,8.348257129003986,0.8425149875374514,1.059015210804682
0.1007069391351277,0.017757315364068608,0.9999963944061023,8.377784979785845,0.849374688606641,1.0531362856567559
0.10316320594330154,0.017677260786383372,0.9999963647158684,8.403915446890444,0.8559355881296337,1.0472660374966947
0.10561947275147539,0.01759724641249154,0.999996333831428,8.426665845644457,0.8622107015031152,1.0414033035964438
0.10807573955964923,0.01751725703778395,0.999996301406796,8.446051025977207,0.8682124771744497,1.0355469372639308
0.11053200636782308,0.01743727755751569,0.999996267075326,8.462083450671983,0.8739528213366047,1.02969580520894
0.11298827317599693,0.017357292934156363,0.9999962304444385,8.474773260704161,0.8794431215471962,1.0238487849762248
0.11544453998417077,0.017277288164986818,0.9999961910894114,8.484128328813254,0.8846942693184885,1.0180047624315987
0.11790080679234462,0.017197248249781142,0.9999961485459958,8.490154302229557,0.8897166817231317,1.0121626292869172
0.12035707360051846,0.017117158158406497,0.9999961023015506,8.492854635285443,0.8945203220584547,1.0063212806499278
0.12281334040869231,0.01703700363028838,0.9999960517853052,8.492276047124056,0.8991147196102628,1.0004796125849535
0.12526960721686617,0.01695676902992624,0.9999959963652287,8.488352717495946,0.903508988555323,0.9946365737592111
0.12772587402504001,0.016876437590120294,0.9999959353365401,8.480764640228237,0.9077118460403448,0.9887913725915286
0.13018214083321386,0.01679599938293204,0.9999958678938464,8.469505386511528,0.9117316294729598,0.982943300605207
0.1326384076413877,0.016715444378274588,0.9999957931059391,8.454569197479215,0.9155763130583146,0.9770916442141958
0.13509467444956155,0.01663476238714937,0.999995709885975,8.435948687916968,0.9192535236142515,0.97123568370718
0.1375509412577354,0.016553943046050165,0.9999956169532563,8.413634834713614,0.9227705556963033,0.9653746922007307
0.14000720806590924,0.01647297580054192,0.9999955127836668,8.387616960780328,0.9261343860621901,0.9595079345575198
0.1424634748740831,0.016391849887940582,0.9999953955445845,8.357882714415174,0.929351687504109,0.953634666265242
0.14491974168225694,0.016310554319011225,0.999995263008238,8.324418044048901,0.9324288420756646,0.9477541322714989
0.14737600849043078,0.01622907785859106,0.9999951124346431,8.287207168268388,0.935371953738877,0.9418655657694589
0.14983227529860463,0.016147409005033284,0.9999949404108304,8.246232540974601,0.9381868604552097,0.9359681869286413
0.15228854210677847,0.016065535968355218,0.9999947426260118,8.201474811492064,0.9408791457429132,0.9300612015646493
0.15474480891495232,0.01598344664696053,0.9999945135507288,8.152912779405323,0.9434541497211587,0.9241437997410831
0.15720107572312617,0.01590112860278992,0.9999942459684166,8.100523343855034,0.9459169796591237,0.9182151542962111
0.1596573425313,0.015818569034737443,0.9999939302735501,8.044281446979593,0.9482725200451703,0.9122744192862448
0.16211360933947386,0.015735754750149808,0.9999935533883106,7.984160011138645,0.950525442186847,0.9063207283362248
0.1645698761476477,0.015652672134203717,0.9999930970317028,7.920129869499589,0.9526802133455421,0.9003531928885956
0.16702614295582155,0.015569307116930654,0.9999925348394922,7.852159689507086,0.9547411053978448,0.8943709003384797
0.1694824097639954,0.015485645137628977,0.999991827333981,7.780215888685607,0.9567122029941781,0.8883729120434557
0.17193867657216924,0.015401671106369585,0.9999909126045774,7.70426254214317,0.9585974111429453,0.8823582611942983
0.1743949433803431,0.015317369362261687,0.9999896877252665,7.624261281043001,0.9604004620583769,0.8763259505315639
0.17685121018851693,0.015232723628099666,0.9999879680343939,7.540171181173669,0.962124920900674,0.8702749498911747
0.17930747699669078,0.015147716960957677,0.9999853858852842,7.451948640536228,0.9637741894924079,0.8642041935601579
0.18176374380486462,0.015062331698234031,0.9999810893265724,7.359547244471637,0.9653515054627844,0.858112577421566
0.18422001061303847,0.014976549398569348,0.9999725529859113,7.2629176160415785,0.9668599283041909,0.8519989558655192
0.18667627742121232,0.014890350777043145,0.9999475048841513,7.162007250815973,0.9683022742401564,0.8458621384428142
0.18913254422938616,0.014803765682857111,0.38132639214672154,7.0592516140352615,0.9696807022756746,0.8397008862531657
0.19158881103756,0.014716431943138918,1.910502322789968e-05,6.935462268883398,0.9186772366375043,0.8335172080784207
0.19404507784573385,0.01462834313309929,7.553689050232996e-06,6.787357764350778,0.8390403064568568,0.8273164008078648
0.1965013446539077,0.01453969936299127,3.930441178203027e-06,6.6226796296604125,0.7663060417532962,0.8211025942742467
0.19895761146208155,0.014450449028461508,2.2876984874295396e-06,6.437767314418689,0.6998767428118754,0.8148786705606479
0.2014138782702554,0.01436053351437146,1.4159836827350965e-06,6.228223764437881,0.6392060084795985,0.8086486925469577
0.20387014507842924,0.014269889884297749,9.121032421180494e-07,5.989032526595979,0.5837946998694815,0.8024182100566011
0.20632641188660308,0.014178458119017735,6.050961727761893e-07,5.714917548673782,0.5331869131249566,0.796194622657106
0.20878267869477693,0.014086195944133115,4.113177674245794e-07,5.4010677431913985,0.48696625153878176,0.7899876039672378
0.21123894550295078,0.013993104689609945,2.8584588860230204e-07,5.044312153467489,0.444752408276664,0.7838095944433511
0.21369521231112462,0.013899268554228862,2.0296604025065018e-07,4.644690444444021,0.4061980411295417,0.7776763762225444
0.21615147911929847,0.013804905989146287,1.472815505488802e-07,4.207091857197101,0.3709859164995732,0.7716077576443462
0.2186077459274723,0.013710425774808202,1.0926974613294313e-07,3.7423193249879705,0.33882630020123417,0.7656284221378765
0.22106401273564616,0.013616475579410852,8.289768127083587e-08,3.266840524673343,0.30945457406671784,0.7597690649823491
0.22352027954382,0.01352397732128775,6.426970234387489e-08,2.8009448546605227,0.28262905895936974,0.7540682190850123
0.22597654635199385,0.013434174012688501,5.082715414532718e-08,2.3659062197770875,0.2581290263912452,0.7485763660411862
0.2284328131601677,0.013348754963149603,4.0871957768849536e-08,1.9807226939815064,0.23575288244269962,0.74336764165548
0.23088907996834154,0.013270091700268178,3.330785051521299e-08,1.6569464173326522,0.21531650907535252,0.7385687814247212
0.2333453467765154,0.013201371109312993,2.7491555340303874e-08,1.3917467282686755,0.19665174921297865,0.7343961693996486
0.23580161358468923,0.013145967939689612,2.3030854601322403e-08,1.1709271551431724,0.17960502313671847,0.7311174523687853
0.23825788039286308,0.013105520288453656,1.9568100621419103e-08,0.9848817550504718,0.16403606480646468,0.7288670033163854
0.24071414720103693,0.013078536471849124,1.675881347780351e-08,0.8320080182802865,0.14981676771085012,0.7275246803566683
0.24317041400921077,0.013061708938039363,1.4357966657167314e-08,0.7101299830777564,0.1368301307677961,0.7268385020344897
0.24562668081738462,0.013051416595559678,1.0958307985527551e-07,0.6070278240046819,0.12496929561164478,0.7265829192763282
0.24610550365139347,0.013069041129953477,1.0778239599016646e-07,0.8915725131842527,0.12277981093796096,0.7265829192739296
0.24658432648540232,0.013078393458548124,1.0638034614559732e-07,0.8833788927401949,0.12062868950387615,0.7272984435674793
0.24706314931941117,0.013090838237966359,1.0515589638060255e-07,0.8739349913360117,0.11851525913109753,0.7282447340330472
0.24754197215342003,0.013106383270183989,1.040891646793523e-07,0.8645179416228018,0.11643885941509743,0.7294171010306382
0.24802079498742888,0.01312495879359224,1.0316209456540163e-07,0.8556725624653683,0.11439884152234296,0.7308081696643437
0.24849961782143773,0.013146468826260901,1.0235917298884794e-07,0.8476184799906432,0.11239456798758521,0.7324099817153079
0.24897844065544658,0.013170810050122548,1.0166729810959255e-07,0.8404254146758569,0.11042541251471373,0.7342146654777465
0.24945726348945543,0.01319787927375361,1.0107546242752764e-07,0.8340914316794471,0.10849075978109726,0.7362146626820907
0.24993608632346428,0.013227576508141083,1.0057442861918457e-07,0.8285800651846886,0.10659000524534795,0.7384028007401089
0.2504149091574731,0.013259806203171345,1.0015644362314433e-07,0.823838887894857,0.10472255495844722,0.7407723056294706
0.25089373199148196,0.013294477658943411,9.981499836957299e-08,0.8198091590355153,0.10288782537817698,0.7433167907851637
0.2513725548254908,0.01333150505059831,9.954462949631893e-08,0.8164309416909741,0.10108524318679743,0.7460302363782867
0.25185137765949966,0.013370807269816574,9.934075677143744e-08,0.8136458158805451,0.09931424511191635,0.7489069652357184
0.2523302004935085,0.013412307682194386,9.919954998782181e-08,0.8113982725420578,0.09757427775049375,0.7519416182368067
0.25280902332751737,0.013455933850844138,9.911781990819837e-08,0.8096363671318199,0.09586479739592844,0.7551291304884549
0.2532878461615262,0.01350161725235332,9.909292877517622e-08,0.8083119528377508,0.09418526986817209,0.7584647088548361
0.25376666899553507,0.0135492929987139,9.912271675400587e-08,0.8073806755485756,0.0925351703468184,0.7619438110628775
0.2542454918295439,0.013598899572136745,9.920544139279796e-08,0.8068018365719835,0.09091398320711551,0.7655621264274424
0.2547243146635528,0.01365037857599378,9.933972776775596e-08,0.806538185727452,0.08932120185885102,0.769315558151931
0.2552031374975616,0.013703674503088691,9.952452744767136e-08,0.806555682106718,0.08775632858805862,0.7732002071177907
0.2556819603315705,0.013758734521318709,9.97590847835481e-08,0.8068232446877365,0.08621887440149781,0.7772123570584477
0.25616078316557933,0.01381550827616579,1.0004290932494208e-07,0.8073125058337158,0.08470835887385814,0.7813484610081188
0.2566396059995882,0.01387394770912736,1.0037575340044935e-07,0.8079975750978905,0.0832243099976398,0.7856051289176897
0.25711842883359703,0.013934006891043248,1.0075759408865571e-07,0.8088548172945611,0.08176626403566466,0.7899791163351212
0.2575972516676059,0.01399564186922288,1.0118861895797375e-07,0.8098626466623219,0.08033376537617058,0.7944673140547124
0.25807607450161474,0.014058810527283866,1.0166921507713775e-07,0.8110013376382323,0.07892636639044517,0.7990667386470435
0.2585548973356236,0.014123472456653786,1.0219996089896007e-07,0.812252851975896,0.07754362729295332,0.8037745237889429
0.25903372016963244,0.01418958883874546,1.027816207031912e-07,0.8136006814847966,0.07618511600391557,0.8085879123200533
0.2595125430036413,0.014257122336883275,1.0341514135382479e-07,0.8150297054219101,0.07485040801429416,0.8135042489593772
0.25999136583765015,0.014326036997128117,1.0410165118502656e-07,0.816526061452753,0.07353908625314494,0.8185209736214668
0.260470188671659,0.014396298157217803,1.0484246088049058e-07,0.8180770290677388,0.072250740957293,0.8236356152776917
0.26094901150566785,0.014467872362906602,1.0563906625543851e-07,0.819670924358997,0.07098496954329227,0.8288457863132589
0.2614278343396767,0.014540727291050293,1.0649315289031558e-07,0.8212970051119373,0.06974137648162822,0.8341491773354182
0.26190665717368555,0.01461483167884195,1.0740660260189611e-07,0.8229453852312454,0.06851957317312529,0.8395435523925827
0.2623854800076944,0.014690155258657522,1.0838150177218394e-07,0.8246069575940179,0.06731917782751955,0.8450267445679704
0.26286430284170326,0.014766668698020066,1.0942015158926342e-07,0.8262733244981011,0.06613981534415923,0.85059665191486
0.2633431256757121,0.014844343544236888,1.1052508028811246e-07,0.8279367349475624,0.06498111719479599,0.8562512337037144
0.26382194850972096,0.014923152173304841,1.1169905751430296e-07,0.8295900280880661,0.06384272130842965,0.8619885069542341
0.2643007713437298,0.015003067742716768,1.1294511097045694e-07,0.8312265821711842,0.06272427195817126,0.8678065432279604
0.26477959417773866,0.015084064147836054,1.1426654554531839e-07,0.8328402684880778,0.0616254196500886,0.8737034656593481
0.2652584170117475,0.015166115981536823,1.1566696516945731e-07,0.8344254097691763,0.06054582101399967,0.8796774462052709
0.26573723984575637,0.015249198496835434,1.1715029769118261e-07,0.8359767425977807,0.05948513869618009,0.8857267030947994
0.2662160626797652,0.015333287572263907,1.1872082312264554e-07,0.8374893834317315,0.0584430412539507,0.8918494984627531
0.26669488551377407,0.01541835967975887,1.2038320567103374e-07,0.8389587978692759,0.05741920305211288,0.8980441361520453
0.2671737083477829,0.01550439185486004,1.2214253004519527e-07,0.840380772832754,0.056413304161198885,0.904308959671192
0.2676525311817918,0.015591361669031046,1.240043426163922e-07,0.8417513913775999,0.0554250302575058,0.9106423502945958
0.2681313540158006,0.01567924720393206,1.259746981161031e-07,0.8430670098643543,0.05445407252488148,0.9170427252943079
0.2686101768498095,0.015768027027489046,1.2806021267746621e-07,0.8443242372585539,0.053500127558232566,0.9235085362929871
0.26908899968381833,0.01585768017161824,1.3026812417452927e-07,0.8455199163475734,0.05256289726872368,0.9300382677286787
0.2695678225178272,0.0159481861114767,1.32606360990476e-07,0.8466511066851996,0.05164208879063926,0.9366304354228412
0.27004664535183603,0.016039524746121497,1.3508362055936816e-07,0.8477150690940862,0.05073741438987803,0.9432835852438152
0.2705254681858449,0.016131676380469764,1.377094592843712e-07,0.8487092515736087,0.0498485913740525,0.9499962918585714
0.27100429101985374,0.01622462170846164,1.4049439574996516e-07,0.8496312764760839,0.048975342004165104,0.9567671575662107
0.2714831138538626,0.016318341797336086,1.4345002953031582e-07,0.850478928828195,0.048117393407833706,0.9635948112072169
0.27196193668787144,0.016412818072937502,1.4658917836876082e-07,0.8512501456868761,0.04727447749403981,0.9704779071429861
0.2724407595218803,0.016508032305977804,1.4992603708740881e-07,0.8519430064299431,0.046446330869372617,0.9774151243005937
0.27291958235588915,0.01660396659918481,1.53476362311146e-07,0.8525557238917241,0.04563269475574356,0.9844051652781789
0.273398405189898,0.016700603375273827,1.5725768799600835e-07,0.8530866362628322,0.04483331490954592,0.9914467555067102
0.27387722802390685,0.016797925365434507,1.6128957780875244e-07,0.8535341953603183,0.04404794154223455,0.9985386424642265
0.2743560508579157,0.016895915594969595,1.6559392076003525e-07,0.8538969062399651,0.043276329242301716,1.00567959488696
0.27483487369192455,0.016994557371479722,1.701952809049646e-07,0.8541733635953894,0.04251823689862506,1.0128684017581182
0.2753136965259334,0.017093834283859015,1.7512131502392217e-07,0.8543623409078522,0.041773427625164845,1.0201038718626636
0.27579251935994226,0.017193730191448976,1.804032695370459e-07,0.8544627077363113,0.04104166868698804,1.0273848333479316
0.2762713421939511,0.01729422921577816,1.8607657602778332e-07,0.8544734226591215,0.04032273142759708,1.0347101331538235
0.27675016502795996,0.01739531573291011,1.9218156947422224e-07,0.8543935288571979,0.03961639119754255,1.042078636475985
0.2772289878619688,0.017496974366259885,1.9876435970038722e-07,0.8542221500398773,0.03892242728429917,1.0494892262614817
0.27770781069597766,0.01759918997984891,2.0587789554885075e-07,0.8539584866811997,0.038240622843385835,1.056940802734919
0.2781866335299865,0.017701947671969934,2.1358327336028933e-07,0.8536018125373355,0.037570764830711055,1.0644322829530912
