Time [s],Lmtc [m],STIM [ ],Fsee [N],Gamma [ ],Lcerel [ ]
0.0,0.018107043453266743,0.9999990387961835,1.6407320095674756,0.09667223463790374,1.091181923369421
0.0021602979254210057,0.018173708626021103,0.999999076099738,3.6307301145892876,0.13137115779701025,1.0911819233596043
0.004320595850842011,0.01823021607321866,0.9999991119704144,5.928369790360066,0.16473721452453738,1.0911819211812706
0.006480893776263017,0.018272726769668932,0.9999991464616699,8.02632129271926,0.19682160332357218,1.09118191707314
0.008641191701684023,0.01829605726922799,0.9999991403715117,9.312535049406565,0.22767355604342676,1.091181900749752
0.010801489627105029,0.018303541587096177,0.9999990658590066,10.018456784386464,0.25734041191559,1.0908439558993854
0.012961787552526034,0.01830163110132995,0.9999989408877062,10.513537172136408,0.28586769069006424,1.0901035497018334
0.01512208547794704,0.018293544683808907,0.9999987848372413,10.865709411128393,0.31329916428540194,1.089095083088747
0.017282383403368046,0.018281300647354597,0.9999986068045937,11.121767321127397,0.3396769239814478,1.0879021841480598
0.01944268132878905,0.018266181231904606,0.9999984123520783,11.312619662789032,0.36504144458167714,1.0865784492275645
0.021602979254210057,0.018249019053073752,0.9999982054709167,11.45850857564531,0.38943164637011046,1.0851593035763318
0.023763277179631063,0.018230368446238192,0.9999979892873554,11.572784029557992,0.4128849547637404,1.083668861395606
0.02592357510505207,0.018210607919195425,0.9999977663601399,11.66437648072199,0.43543735770069175,1.0821239874140163
0.028083873030473074,0.018190002250289536,0.9999975388255186,11.739363677076405,0.4571234608353911,1.0805367681113511
0.03024417095589408,0.018168740880558167,0.9999973084793359,11.80195744221041,0.47797654061913175,1.0789160575446588
0.03240446888131508,0.018146962181848927,0.9999970768308083,11.855129231660438,0.49802859534483934,1.0772684703692454
0.03456476680673609,0.018124769146793653,0.9999968451423011,11.901011704659584,0.5173103942331542,1.0755990358092735
0.0367250647321571,0.01810223975769251,0.9999966144613442,11.941160483088497,0.5358515246345281,1.0739116383488598
0.03888536265757811,0.018079433983169576,0.9999963856477269,11.976727581488376,0.5536804374194063,1.0722093210302104
0.04104566058299912,0.018056398592519247,0.9999961593970269,12.008578215405919,0.5708244906259072,1.070494498265389
0.04320595850842013,0.018033170529288343,0.9999959362612836,12.03737074409949,0.5873099914317923,1.0687691078230641
0.04536625643384114,0.018009779315551065,0.999995716667222,12.063612229852996,0.6031622365149911,1.06703472114995
0.047526554359262146,0.017986248792422495,0.9999955009323104,12.087697618793506,0.6184055508644792,1.0652926246504435
0.049686852284683156,0.01796259839846815,0.9999952892788709,12.109937754924793,0.6330633251009572,1.0635438803957278
0.051847150210104165,0.01793884412140443,0.9999950818464327,12.130579671469727,0.6471580513644963,1.0617893720448155
0.054007448135525174,0.017914999215472596,0.9999948787024979,12.149821468629701,0.6607113578241273,1.0600298399875563
0.05616774606094618,0.01789107474848031,0.9999946798518822,12.167823347542932,0.6737440418622495,1.0582659085316097
0.05832804398636719,0.01786708002347182,0.9999944852447711,12.184715881838352,0.686276101984705,1.0564981071466328
0.0604883419117882,0.01784302290703727,0.999994294783628,12.200606281177807,0.6983267685054237,1.0547268872203646
0.06264863983720921,0.017818910087336395,0.9999941083290721,12.21558317938024,0.70991453305266,1.0529526353902332
0.06480893776263022,0.017794747278665604,0.9999939257048338,12.22972032741008,0.7210571769420537,1.0511756842368682
0.06696923568805123,0.017770539384977288,0.9999937467018816,12.243079465682525,0.7317717984600036,1.0493963209269956
0.06912953361347224,0.017746290631595323,0.9999935710818031,12.255712575777967,0.7420748390991815,1.0476147942488883
0.07128983153889325,0.017722004672080058,0.9999933985795094,12.267663658851722,0.7519821087864056,1.045831320377762
0.07345012946431426,0.017697684675521068,0.9999932289053222,12.278970150145318,0.7615088101415587,1.0440460876302027
0.07561042738973527,0.017673333398298782,0.9999930617464902,12.289664051570835,0.7706695618047403,1.042259260408185
0.07777072531515627,0.017648953243434528,0.9999928967681749,12.299772844289082,0.779478420867429,1.0404709824891556
0.07993102324057728,0.017624546309955046,0.99999273361393,12.309320228420043,0.7879489044420457,1.0386813797851087
0.0820913211659983,0.017600114434172767,0.9999925719056927,12.31832672603648,0.7960940104030015,1.0368905626679363
0.0842516190914193,0.017575659224381437,0.9999924112432947,12.326810175359956,0.8039262373310276,1.0350986279385013
0.08641191701684031,0.017551182090158077,0.9999922512034896,12.334786137865663,0.8114576036913796,1.0333056605014896
0.08857221494226132,0.01752668426722289,0.9999920913384794,12.342268235279667,0.8186996662753268,1.0315117347960672
0.09073251286768233,0.017502166838622088,0.9999919311739189,12.349268429837613,0.825663537933196,1.029716916022875
0.09289281079310334,0.0174776307528517,0.999991770206353,12.35579725838989,0.8323599046261805,1.0279212612003827
0.09505310871852435,0.017453076839424854,0.9999916079000363,12.361864028780072,0.8387990418230417,1.0261248200776463
0.09721340664394536,0.01742850582229296,0.9999914436830604,12.36747698524112,0.8449908302668582,1.0243276359257243
0.09937370456936637,0.017403918331457557,0.9999912769426963,12.372643448234353,0.8509447711359837,1.022529746226146
0.10153400249478738,0.01737931491305062,0.9999911070198331,12.37736993311627,0.8566700006224601,1.0207311832717016
0.10369430042020839,0.01735469603811331,0.999990933202364,12.381662251194117,0.8621753039502262,1.018931974692284
0.1058545983456294,0.01733006211026469,0.9999907547173328,12.385525596074483,0.8674691288545975,1.0171321439164491
0.1080148962710504,0.01730541347242019,0.9999905707216045,12.388964617684167,0.8725595985436642,1.0153317105776463
0.11017519419647141,0.01728075041269386,0.9999903802907666,12.391983485920017,0.877454524161461,1.0135306908726764
0.11233549212189242,0.01725607316959727,0.9999901824058889,12.394585945543666,0.8821614167719597,1.0117290978787727
0.11449579004731343,0.017231381936630406,0.9999899759376718,12.396775363660376,0.8866874988822281,1.0099269418347392
0.11665608797273444,0.017206676866345225,0.9999897596273862,12.398554770896201,0.8910397155223423,1.0081242303907714
0.11881638589815545,0.017181958073950822,0.9999895320638403,12.399926897203525,0.8952247448989664,1.0063209688309254
0.12097668382357646,0.017157225640518543,0.9999892916553899,12.400894203074191,0.8992490086388146,1.0045171602716179
0.12313698174899747,0.01713247961583754,0.9999890365957121,12.401458906814678,0.9031186816375625,1.0027128058390875
0.12529727967441848,0.017107720027366255,0.9999887648217258,12.401623430897953,0.9068397015291262,1.0009079048283254
0.12745757759983947,0.017082946920483524,0.9999884739624557,12.40139266238009,0.9104177777895865,0.9991024551394833
0.12961787552526047,0.01705816011393101,0.9999881612755689,12.400753847583466,0.9138584004894427,0.9972964576621506
0.13177817345068146,0.017033359637774914,0.999987823564413,12.399705332120352,0.9171668487072396,0.9954899164503933
0.13393847137610246,0.01700854555278803,0.9999874570726661,12.398248429850707,0.9203481986168142,0.9936828345397409
0.13609876930152345,0.016983717900751,0.999987057350128,12.39638432664478,0.9234073312598503,0.9918752137448249
0.13825906722694445,0.016958876705809818,0.9999866190783612,12.394114091610327,0.9263489400147126,0.9900670547457682
0.14041936515236544,0.016934021975704778,0.9999861358413338,12.391438687063085,0.9291775377716901,0.9882583571666225
0.14257966307778644,0.016909153702884774,0.999985599819691,12.388358977395484,0.931897463823808,0.9864491196466968
0.14473996100320743,0.016884271865518927,0.9999850013772309,12.38487573697742,0.9345128904812076,0.9846393399054981
0.14690025892862843,0.016859376428416353,0.9999843284924581,12.380989657204431,0.9370278294155636,0.9828290148019452
0.14906055685404943,0.016834467343863475,0.9999835659629781,12.376701352793116,0.9394461377389669,0.9810181403884218
0.15122085477947042,0.01680954455238704,0.9999826942692441,12.372011367409886,0.9417715238187383,0.9792067119601761
0.15338115270489142,0.01678460798345046,0.999981687914396,12.36692017870719,0.944007552825238,0.9773947241005306
0.1555414506303124,0.016759657556089817,0.9999805129348754,12.361428202830558,0.9461576520027982,0.9755821707222995
0.1577017485557334,0.01673469317949552,0.9999791230546846,12.355535798449903,0.9482251156425674,0.9737690451057851
0.1598620464811544,0.016709714753544776,0.9999774535349433,12.349243270358198,0.9502131097166131,0.9719553399336838
0.1620223444065754,0.01668472216928957,0.999975410928509,12.342550872669863,0.9521246760977621,0.9701410473232082
0.1641826423319964,0.016659715309404504,0.99997285516179,12.335458811637052,0.9539627362238089,0.9683261588557159
0.1663429402574174,0.0166346940485983,0.9999695662836625,12.327967248082143,0.9557300939326937,0.9665106656041366
0.16850323818283838,0.01660965825399311,0.9999651780276787,12.320076299412154,0.9574294369115384,0.9646945581585199
0.17066353610825938,0.016584607785475595,0.9999590318338484,12.311786041127052,0.9590633355380116,0.9628778266501076
0.17282383403368037,0.016559542496026508,0.9999498125370617,12.303096507661273,0.9606342361588885,0.9610604607745881
0.17498413195910137,0.016534462232045733,0.9999344582405988,12.294007692495688,0.962144440632864,0.9592424498158465
0.17714442988452236,0.016509366833760204,0.9999038186691084,12.284519550113531,0.9635960447852521,0.9574237826737241
0.17930472780994336,0.016484256136645448,0.9998125621188659,12.274632049336388,0.9649907124555063,0.9556044479086239
0.18146502573536435,0.016459158082086173,0.7219339298841203,12.266189629453804,0.9663283022903149,0.9537844338845501
0.18362532366078535,0.01643405989356505,7.697027249236507e-05,12.257199646169763,0.9475943835987128,0.9519650217538377
0.18578562158620635,0.01640873359393993,3.1732926520157336e-05,12.227628491717601,0.8749628878564318,0.950151873577923
0.18794591951162734,0.016383491791407457,1.71420816838771e-05,12.192144674463767,0.8078955159110565,0.9483515108467091
0.19010621743704834,0.016358364344092616,1.0349221713721598e-05,12.149211666011501,0.7459680971978748,0.9465678537320216
0.19226651536246933,0.01633339060662823,6.640224971349621e-06,12.096906074277303,0.6887872246446948,0.9448059664517668
0.19442681328789033,0.016308622548443556,4.429494487164069e-06,12.032848279066979,0.6359892865702507,0.9430723742460364
0.19658711121331132,0.016284128925431483,3.038374462002805e-06,11.954138514092156,0.5872384225243067,0.941375457668577
0.19874740913873232,0.016260000859648186,2.1308927180693913e-06,11.857313266374108,0.5422244655290015,0.9397259362496867
0.2009077070641533,0.016236359256183715,1.523881338996218e-06,11.738344853692823,0.5006609988054479,0.9381374505068293
0.2030680049895743,0.016213364531322837,1.1105360835318204e-06,11.592716146171574,0.4622835469074806,0.9366272440054179
0.2052283029149953,0.01619122907308352,8.255214228971023e-07,11.41560944706548,0.42684789965512876,0.9352169332897329
0.2073886008404163,0.016170232592112282,6.274926785663926e-07,11.202247600889205,0.3941285618726676,0.9339333302117365
0.2095488987658373,0.016150739892855884,4.897169312840812e-07,10.948407714696836,0.3639173206227538,0.9328092459986993
0.2117091966912583,0.016133219452106745,3.9480748955683805e-07,10.65108486375521,0.33602192155075805,0.9318841588133974
0.21386949461667928,0.016118259501772588,3.317708551514682e-07,10.309213054526221,0.31026484629073414,0.9312045708828532
0.21602979254210028,0.01610704345326674,9.533472844194e-07,9.951859563028716,0.2864821833633756,0.9308238295395884
0.21672663747382212,0.01610216859192247,9.288802631223348e-07,9.665805287352141,0.2792064869391048,0.930823829536135
0.21742348240554396,0.01609711023821381,9.05034690890426e-07,9.373393099003255,0.27211557549460513,0.9308238301178089
0.2181203273372658,0.01609187410918341,8.817947350951313e-07,9.075434912185678,0.2652047559411672,0.930823830719762
0.21881717226898764,0.016086467170477205,8.591450148772135e-07,8.772807460370633,0.2584694543831107,0.9308238313438313
0.21951401720070948,0.016080897678274024,8.370705400328819e-07,8.46644718031979,0.2519052130905724,0.9308238319920297
0.22021086213243132,0.016075175133930707,8.155567010914477e-07,8.15733925473624,0.24550768754917707,0.9308238326665639
0.22090770706415316,0.01606931021575687,7.94589259644581e-07,7.846505323664164,0.23927264358463976,0.9308238333698565
0.221604551995875,0.01606331468884671,7.741543389208213e-07,7.534990178277388,0.23319595456039682,0.930823834104569
0.22230139692759684,0.01605720129466093,7.542384145991659e-07,7.223847798884144,0.2272735986464083,0.9308238348736273
0.22299824185931869,0.016050983622765653,7.348283058557233e-07,6.914127130616594,0.22150165615732817,0.930823835680253
0.22369508679104053,0.016044675967755335,7.159111666375804e-07,6.606858003055059,0.21587630695827748,0.9308238365279967
0.22439193172276237,0.016038293174879488,6.974744771581843e-07,6.303037593013533,0.21039382793650466,0.9308238374207782
0.2250887766544842,0.016031850478230386,6.795060356086895e-07,6.00361780340826,0.20505059053726013,0.9308238383629283
0.22578562158620605,0.016025363335516164,6.619939500798614e-07,5.709493887469699,0.19984305836225266,0.930823839359242
0.2264824665179279,0.0160188472634352,6.449266306892589e-07,5.4214945896909965,0.19476778482909982,0.9308238404150373
0.22717931144964973,0.01601231767749177,6.282927819085653e-07,5.140374006861316,0.18982141089022259,0.930823841536222
0.22787615638137157,0.016005789739766817,6.120813950860429e-07,4.866805298860565,0.18500066280967445,0.9308238427293741
0.2285730013130934,0.01599927821770757,5.962817411592261e-07,4.601376304212551,0.1803023499964334,0.9308238440018323
0.22926984624481525,0.015992797356458324,5.808833635530831e-07,4.344587044031023,0.1757233628927235,0.9308238453618071
0.2299666911765371,0.015986360766655945,5.658760712589955e-07,4.0968490336364605,0.17126067091596744,0.930823846818507
0.23066353610825893,0.01597998132899392,5.512499320900207e-07,3.858486266596289,0.1669113204530086,0.9308238483822906
0.23136038103998077,0.015973671116249217,5.369952661080261e-07,3.6297376930965948,0.1626724329052756,0.9308238500648517
0.2320572259717026,0.015967441332895436,5.231026392184017e-07,3.4107609842360245,0.15854120278359402,0.9308238518794346
0.23275407090342445,0.015961302271915973,5.095628569281791e-07,3.201637355978913,0.15451489585138575,0.9308238538411024
0.2334509158351463,0.015955263287996978,4.96366958263523e-07,3.002377220274232,0.1505908473150264,0.9308238559670616
0.23414776076686813,0.01594933278593138,4.835062098426973e-07,2.8129264348243863,0.14676646006016372,0.9308238582770623
0.23484460569858998,0.015943518222804754,4.709721001007578e-07,2.6331729353754962,0.14303920293282818,0.930823860793897
0.23554145063031182,0.015937826122359364,4.587563336624177e-07,2.4629535532268805,0.13940660906420035,0.9308238635440315
0.23623829556203366,0.015932262099837453,4.4685082585972397e-07,2.3020608439298726,0.13586627423792424,0.9308238665583978
0.2369351404937555,0.015926830895580966,4.352476973914712e-07,2.1502497790176083,0.13241585529888722,0.930823869873427
0.23763198542547734,0.015921536415699683,4.239392691216244e-07,2.007244179434899,0.12905306860241347,0.9308238735323886
0.23832883035719918,0.01591638177820427,4.1291805701451895e-07,1.8727427957806815,0.1257756885028433,0.9308238775871713
0.23902567528892102,0.015911369363122374,4.0217676720535196e-07,1.7464249654919122,0.12258154588049922,0.9308238821006822
0.23972252022064286,0.015906500865267216,3.91708291205614e-07,1.627955799965775,0.11946852670606424,0.9308238871501441
0.2404193651523647,0.015901777348502403,3.815057012449902e-07,1.5169908749122432,0.11643457064142006,0.9308238928317316
0.24111621008408654,0.015897199300544264,3.715622457544781e-07,1.4131804148314648,0.11347766967602176,0.930823899267247
0.24181305501580838,0.015892766687575343,3.618713450013102e-07,1.3161729776255107,0.11059586679790466,0.9308239066140302
0.24250989994753022,0.015888479008244385,3.5242658689746666e-07,1.2256186586789952,0.10778725469844477,0.9308239150801687
0.24320674487925206,0.01588433534709947,3.432217230264802e-07,1.1411718469647008,0.1050499745100143,0.9308239249488329
0.2439035898109739,0.015880334428413925,3.342506649839372e-07,1.0624935831728384,0.10238221457569896,0.9308239366191895
0.24460043474269574,0.015876474673558995,3.255074812504945e-07,0.9892536042097614,0.09978220925026052,0.9308239506795868
0.24529727967441758,0.015872754271489105,3.1698639515624865e-07,0.9211322536498303,0.09724823773155232,0.9308239680492597
0.24599412460613942,0.01586917129501262,3.0868178560472345e-07,0.8578227811138196,0.0947786229216138,0.9308239902832169
0.24669096953786127,0.01586572400545478,3.005881968754981e-07,0.7990362048962556,0.092371730316691,0.9308240203329738
0.2473878144695831,0.015862412315670697,2.9270039388952877e-07,0.744523477168635,0.09002596692544791,0.9308240649272053
0.24808465940130495,0.01585926832968599,2.850143081727768e-07,0.6945450014691257,0.08773978021465421,0.9308241457354018
0.2487815043330268,0.015857200451429094,2.7755161988799275e-07,0.6625559976905671,0.08551165708167388,0.9308245021597897
0.24947834926474863,0.015855943880843923,2.703469553116478e-07,0.6421191165769022,0.08334012285367465,0.9308313504824003
0.2501751941964705,0.015855113373475217,2.634167856733939e-07,0.6259180148899129,0.0812237403119302,0.9308499702649297
0.25087203912819234,0.015854808714969516,2.567806042681383e-07,0.614483920644992,0.07916110874011278,0.9308842467385398
0.2515688840599142,0.015855223750877133,2.5049540994135324e-07,0.6090686775828438,0.07715086299729453,0.9309414325243892
0.252265728991636,0.01585669302543257,2.447259740082512e-07,0.6113057331801443,0.07519167261536855,0.9310373865639632
0.25296257392335786,0.015859521401029683,2.3989891859101985e-07,0.6172369304021637,0.073282240921178,0.93121410585118
0.2536594188550797,0.015864300572416074,2.3654086464461747e-07,0.6144726779564963,0.07142130418485362,0.9315761612852504
0.25435626378680154,0.015872532659568846,2.3482481259437688e-07,0.6048363859869107,0.06960763078567178,0.93222420761173
0.2550531087185234,0.01588479015247641,2.34592651265567e-07,0.5932487891525309,0.06784002038757629,0.9331758961417272
0.2557499536502452,0.015901032242548338,2.3564711049646872e-07,0.5816022799263795,0.066117303136212,0.9344188929707548
0.25644679858196706,0.01592106174413691,2.3783300382642376e-07,0.570540795493,0.06443833888376672,0.9359355342117917
0.2571436435136889,0.01594464835209519,2.410391725224761e-07,0.560271371781611,0.0628020164355635,0.9377078862009072
0.25784048844541074,0.015971562207636816,2.451902598646701e-07,0.5508345427374035,0.06120725281583726,0.9397188837019591
0.2585373333771326,0.016001584076485546,2.502392932181497e-07,0.5422035559194198,0.05965299255194998,0.9419525881461515
0.2592341783088544,0.016034508334434778,2.5616228897030067e-07,0.534324813085281,0.05813820697659671,0.9443942050059143
0.25993102324057626,0.01607014343787396,2.6295461110147646e-07,0.5271356337089481,0.05666189354759699,0.9470300277680818
0.2606278681722981,0.016108311453522393,2.7062868720208383e-07,0.5205723805852589,0.05522307518486936,0.9498473605568409
0.26132471310401995,0.016148847241746835,2.7921277859599127e-07,0.5145741792534635,0.05382079962418728,0.9528344374852186
0.2620215580357418,0.016191597536329497,2.8875060811675123e-07,0.509084517234825,0.05245413878731673,0.9559803453247451
0.2627184029674636,0.01623642002429795,2.993017375987617e-07,0.5040517914966945,0.05112218816814165,0.9592749517875646
0.26341524789918547,0.01628318246994178,3.109426590719601e-07,0.49942933007497703,0.04982406623438962,0.9627088400009578
