Time [s],Lmtc [m],STIM [ ],Fsee [N],Gamma [ ],Lcerel [ ]
0.0,0.021675709029591945,0.9999997301401776,1.527822590794853,0.09145123748545293,1.351649956389365
0.0033677002168486752,0.021645396740234663,0.9999995758514163,2.866552551213763,0.14526890685480484,1.3458845176243748
0.0067354004336973505,0.021560443625116537,0.9999993311148295,3.7320245927624685,0.19589868932198903,1.337834676043392
0.010103100650546025,0.02145669386459465,0.999999027889712,4.274725694765889,0.24352941330621675,1.329216603175316
0.013470800867394701,0.021346952858349533,0.9999986933799517,4.664329644646649,0.28833872391006016,1.320500524145714
0.016838501084243375,0.021235804895785085,0.9999983485238716,4.979165573889959,0.3304937450790622,1.3118411316390803
0.02020620130109205,0.02112499481520274,0.9999980082237356,5.252733560523806,0.37015170244901474,1.3032936534385824
0.023573901517940726,0.021015216033018525,0.9999976824152813,5.500340055486178,0.4074605093126096,1.294876461661161
0.026941601734789402,0.020906734500356634,0.9999973772665084,5.729643706419634,0.4425593179398378,1.2865927989751518
0.030309301951638078,0.020799628860916772,0.9999970962253101,5.9448365940722105,0.4755790383120577,1.2784393866349535
0.03367700216848675,0.020693891802762647,0.9999968408437309,6.148411643246978,0.506642826191017,1.2704101652919495
0.03704470238533542,0.020589476135619976,0.9999966113915134,6.341966088122222,0.535866542326042,1.262498022557573
0.040412402602184094,0.020486316936953033,0.999996407298048,6.526592746493874,0.5633591844965298,1.254695617738229
0.043780102819032767,0.020384342600299938,0.9999962274639498,6.70308281105056,0.589223293988681,1.246995776951239
0.04714780303588144,0.02028348044758998,0.9999960704772479,6.872037000696478,0.6135553380131268,1.2393916750840355
0.05051550325273011,0.020183659563864805,0.9999959347613019,7.033929634931731,0.6364460694829368,1.2318769092313246
0.05388320346957878,0.02008481216855634,0.9999958186745079,7.189147300966975,0.6579808654890226,1.2244455163854258
0.057250903686427455,0.01998687420079527,0.9999957205762681,7.338013185650012,0.6782400457319254,1.2170919628527295
0.06061860390327613,0.019889785479921113,0.9999956388695039,7.480802986557995,0.6972991720952783,1.2098111200070358
0.0639863041201248,0.019793489638774146,0.9999955720269623,7.617755690767909,0.7152293304766191,1.2025982342339667
0.06735400433697349,0.019697933939847995,0.9999955186063944,7.749081117597217,0.7320973959255743,1.1954488952797995
0.07072170455382217,0.019603069036262258,0.9999954772581588,7.874965355814472,0.74796628207754,1.1883590052195343
0.07408940477067084,0.019508848712455406,0.9999954467277298,7.995574790259289,0.7628951758126652,1.181324749149468
0.07745710498751952,0.019415229624020734,0.9999954258548339,8.111059157363123,0.7769397580150105,1.1743425680917192
0.0808248052043682,0.019322171047151167,0.9999954135704159,8.221553914953919,0.7901524112550328,1.1674091342567186
0.08419250542121688,0.019229634642946004,0.9999954088922623,8.327182116289027,0.8025824151698707,1.1605213286254312
0.08756020563806556,0.019137584238803552,0.9999954109198561,8.428055917696884,0.8142761302700564,1.1536762207186302
0.09092790585491424,0.01904598562738396,0.9999954188288492,8.524277809886495,0.8252771708581735,1.1468710503774184
0.09429560607176292,0.018954806382653303,0.9999954318654176,8.615941636901265,0.8356265677043927,1.1401032113649987
0.0976633062886116,0.01886401569200435,0.9999954493406717,8.703133449038777,0.8453629210856201,1.1333702366014338
0.10103100650546028,0.01877358420320556,0.9999954706252315,8.78593222387745,0.8545225447590769,1.1266697848532015
0.10439870672230896,0.018683483884846388,0.9999954951440345,8.864410480993563,0.8631396014073107,1.1199996287133216
0.10776640693915764,0.018593687898955106,0.9999955223714133,8.938634809836481,0.8712462300598486,1.1133576437231552
0.11113410715600631,0.018504170484523862,0.9999955518264562,9.008666325787509,0.8788726659667606,1.1067417985022372
0.114501807372855,0.018414906102466946,0.9999955830686539,9.074518831105339,0.8860473533712693,1.1001501457669334
0.11786950758970367,0.01832586470631785,0.999995615693822,9.135896165892323,0.8927970516020354,1.093580814131982
0.12123720780655235,0.018237021928854326,0.9999956493302835,9.192771688494801,0.899146934880855,1.0870320006008694
0.12460490802340103,0.01814835546454102,0.9999956836352913,9.245192042984062,0.9051206862180365,1.080501963661599
0.1279726082402497,0.018059843606835664,0.9999957182916669,9.29319945217996,0.9107405857456992,1.0739890169137136
0.13134030845709838,0.017971465176807554,0.9999957530046296,9.336831941758877,0.9160275938184684,1.067491523160543
0.13470800867394706,0.01788319945608983,0.9999957874987888,9.37612353646369,0.9210014291915293,1.0610078889077317
0.13807570889079573,0.017795026123576276,0.9999958215152701,9.411104431374122,0.9256806425676449,1.0545365592151552
0.1414434091076444,0.017706925195323076,0.9999958548089455,9.441801140698798,0.9300826857874619,1.0480760128545938
0.1448111093244931,0.017618876967158102,0.999995887145733,9.468236626137804,0.9342239769211779,1.0416247577299638
0.14817880954134177,0.017530861959536143,0.9999959182999324,9.490430406518094,0.9381199615043634,1.035181326520698
0.15154650975819045,0.017442860864208008,0.999995948051559,9.508398650109392,0.9417851701463297,1.0287442725120113
0.15491420997503913,0.017354854492295478,0.9999959761836295,9.522154250774346,0.9452332727259232,1.0223121655784047
0.1582819101918878,0.017266823723382355,0.9999960024793545,9.53170688888464,0.9484771293768816,1.015883588288856
0.1616496104087365,0.01717874945524493,0.9999960267191813,9.53706307773784,0.9515288384529184,1.0094571321037866
0.16501731062558517,0.017090612738899,0.9999960486778124,9.538236903863758,0.9543997816514321,1.0030313936351047
0.16838501084243385,0.017002395872929243,0.9999960681266579,9.535303919460551,0.9571006664641429,0.9966049864761567
0.17175271105928253,0.01691407682742998,0.9999960848392838,9.527894564738968,0.959641566113322,0.9901767730178994
0.1751204112761312,0.01682564171193872,0.9999960985796074,9.515935661024141,0.962031957122731,0.9837458396579086
0.17848811149297988,0.016737077835878352,0.9999961090927554,9.49942030496084,0.9642807546623546,0.9773112809242552
0.18185581170982856,0.016648372315703652,0.9999961161000448,9.478339309476667,0.9663963457989558,0.9708721843790763
0.18522351192667724,0.01655951205158273,0.9999961192932971,9.452681182647536,0.9683866207767413,0.9644276290408879
0.18859121214352592,0.016470483702974905,0.9999961183281058,9.422432099957613,0.9702590024447884,0.9579766837622042
0.1919589123603746,0.01638127366297091,0.9999961128157678,9.387575869787158,0.972020473940949,0.9515184055543486
0.19532661257722328,0.01629186803124757,0.9999961023134971,9.348093891909471,0.9736776047354203,0.9450518378507818
0.19869431279407196,0.016202252585473413,0.9999960863124223,9.303965108722831,0.9752365751310562,0.938576008699597
0.20206201301092064,0.016112412750984448,0.9999960642227017,9.255165948885672,0.9767031993116919,0.9320899288751122
0.20542971322776932,0.01602233356852883,0.9999960353548599,9.201670262960965,0.9780829470243287,0.925592589897577
0.208797413444618,0.015931999659856675,0.9999959988961229,9.143449250608406,0.9793809639758708,0.9190829619490495
0.21216511366146668,0.015841395190904755,0.9999959538800606,9.080471378789795,0.9806020910202662,0.91255999167232
0.21553281387831535,0.01575050383229585,0.9999958991471694,9.012702290371822,0.9817508822073028,0.906022599838454
0.21890051409516403,0.015659308716837798,0.9999958332930213,8.940104702420566,0.9828316217599521,0.8994696788670064
0.2222682143120127,0.015567792393667196,0.999995754599101,8.86263829338183,0.9838483400429927,0.8929000901812182
0.2256359145288614,0.015475936778636144,0.999995660939136,8.780259578228335,0.9848048285816434,0.8863126613784955
0.22900361474571007,0.015383723100486467,0.9999955496501101,8.69292177052742,0.9857046541850131,0.8797061831941697
0.23237131496255875,0.01529113184229281,0.9999954173513209,8.600574630238214,0.9865511722253196,0.8730794062338715
0.23573901517940743,0.01519814267758218,0.9999952596852694,8.503164295882097,0.9873475391197986,0.8664310374467719
0.2391067153962561,0.01510473440045095,0.9999950709378651,8.400633099541434,0.9880967240579018,0.8597597363083884
0.2424744156131048,0.01501088484889804,0.9999948434667962,8.292919362923811,0.9888015200113603,0.8530641106775108
0.24584211582995347,0.014916570820472066,0.9999945668145676,8.179957172478163,0.9894645540582522,0.8463427122869946
0.24920981604680215,0.014821767979186384,0.999994226282645,8.061676131257354,0.9900882970431244,0.8395940318225663
0.2525775162636508,0.014726450752484063,0.9999938005416108,7.938001084881814,0.9906750725807812,0.8328164935372141
0.2559452164804995,0.01463059221682832,0.9999932574203371,7.8088518185598,0.991227065385984,0.826008449341046
0.2593129166973482,0.014534163970245064,0.9999925460198889,7.674142721647389,0.9917463288621002,0.8191681722974389
0.26268061691419686,0.014437135989841593,0.9999915807727338,7.533782415665706,0.9922347917767286,0.8122938494456212
0.26604831713104554,0.014339476471956058,0.9999902058806943,7.387673340999032,0.9926942636045002,0.8053835738571657
0.2694160173478942,0.014241151652137995,0.9999881046855974,7.235711296612195,0.9931264374590363,0.7984353358189167
0.2727837175647429,0.014142125601597565,0.9999845198863092,7.077784925910465,0.9935328875031945,0.791447013017186
0.2761514177815916,0.014042359996066837,0.9999770783741472,6.9137751402368846,0.9939150499731488,0.7844163595776946
0.27951911799844026,0.013941813852386652,0.9999525561676744,6.743554478442271,0.994274135775837,0.7773409937956762
0.28288681821528894,0.013840603640293223,8.862159389976937e-05,6.574690781552431,0.9946105014363262,0.7702183844100791
0.2862545184321376,0.01373763958891527,9.641957360270979e-06,6.3484358878614975,0.8783432153393237,0.763059640873433
0.2896222186489863,0.013633756961695505,3.7415377304256467e-06,6.094809407363309,0.7756593759766541,0.7558832535661083
0.292989918865835,0.013528888822249388,1.8334382225265714e-06,5.805465164811679,0.6849795011128479,0.7487009333436012
0.29635761908268365,0.013422978849178275,9.980718749820888e-07,5.470428736067755,0.604900687243043,0.7415301661067437
0.29972531929953233,0.013316022516645883,5.80127800944974e-07,5.079581735138938,0.53418370144012,0.7343962856418074
0.303093019516381,0.013208156743731773,3.5490967707247985e-07,4.626053081461504,0.4717341115195261,0.727335111596566
0.3064607197332297,0.013099819968751857,2.2751033815910965e-07,4.111648711703132,0.4165854078864847,0.7203963012658143
0.30982841995007837,0.012991978935221296,1.5271192196238843e-07,3.5525224405252067,0.367884063420598,0.7136476821182536
0.31319612016692705,0.012886367203488843,1.0729230519687469e-07,2.9809598292227277,0.3248763306285579,0.7071810766495509
0.31656382038377573,0.012785673780165627,7.871526121816769e-08,2.4400782856867744,0.2868965790895648,0.7011212248691305
0.3199315206006244,0.012693745742358077,5.99930876867999e-08,1.9727250596880799,0.25335699503491904,0.6956463376647577
0.3232992208174731,0.012615773495216285,4.7280805560907506e-08,1.6010533395906001,0.22373848453779532,0.6910460851884697
0.32666692103432177,0.012557640960860452,3.851020005285336e-08,1.304681870656769,0.1975826399197991,0.6877666053591472
0.33003462125117045,0.012522544413220617,3.221924288246743e-08,1.0586375060173707,0.17448464519637408,0.6860901572542429
0.3334023214680191,0.01250276763946093,2.7203061024114037e-08,0.8015279613228543,0.15408701080190537,0.6856882648697364
0.3367700216848678,0.012487624806194392,1.7415882222953805e-07,0.5676506058106852,0.13607404074038967,0.6856882102816076
0.33740232146801913,0.01250034807427161,1.7021923507377186e-07,0.7614671183271244,0.13293469921570536,0.6856882102816072
0.33803462125117045,0.012506010421676879,1.668845264757934e-07,0.7605763034836239,0.12986779024117884,0.6861049096711047
0.3386669210343218,0.012515458522674439,1.6404909179656003e-07,0.7519309315077808,0.12687164262651357,0.6868322539005522
0.3392992208174731,0.01252940969082628,1.6166817618682457e-07,0.7411443160246479,0.12394462373761239,0.6878977173077292
0.3399315206006244,0.01254790781937174,1.5967694851135893e-07,0.7305697916007498,0.12108513860839122,0.6892939966877343
0.34056382038377575,0.012570804203535915,1.5801792374558163e-07,0.7209994318683259,0.11829162907121865,0.6910066097876145
0.3411961201669271,0.012597903055027802,1.5664416757022002e-07,0.7126572009950619,0.11556257290805062,0.6930201685650738
0.3418284199500784,0.012629002915815007,1.5551801740544083e-07,0.7055512203437542,0.11289648302122529,0.6953198566825429
0.3424607197332297,0.012663909609145598,1.546093089968741e-07,0.6996056877143971,0.11029190662335957,0.6978917899264977
0.34309301951638105,0.012702440268726085,1.538938300472361e-07,0.6947146799184781,0.10774742444589629,0.7007230667848672
0.3437253192995324,0.0127444242158466,1.533520878495973e-07,0.6907654132007238,0.1052616499658766,0.7038017236145788
0.3443576190826837,0.01278970264613843,1.5296835085196514e-07,0.6876484916581843,0.10283322865052398,0.707116661246026
0.344989918865835,0.012838127870489602,1.527299070113961e-07,0.685262247427245,0.10046083721923567,0.7106575662178982
0.34562221864898635,0.012889562415263617,1.5262648886429921e-07,0.6835142868809421,0.09814318292258488,0.7144148350839139
0.34625451843213767,0.01294387811231401,1.5264982592884705e-07,0.6823216947675005,0.0958790028379446,0.7183795047384954
0.346886818215289,0.013000955234542701,1.527932945142479e-07,0.6816106048650407,0.09366706318135323,0.7225431895277702
0.3475191179984403,0.013060681699013837,1.530516424334573e-07,0.6813154936717408,0.09150615863524905,0.7268980250245874
0.34815141778159164,0.013122952343912808,1.5342077170972832e-07,0.681378379129461,0.08939511169170916,0.7314366179965315
0.34878371756474297,0.013187668278268363,1.538975665277341e-07,0.681748016787354,0.08733277201083661,0.7361520019797638
0.3494160173478943,0.013254736300014515,1.5447975676766139e-07,0.6823791386697626,0.08531801579394702,0.7410375978585393
0.3500483171310456,0.013324068376626412,1.551658097593272e-07,0.6832317549596698,0.08334974517121463,0.7460871788818811
0.35068061691419694,0.013395581182223662,1.5595484461430576e-07,0.6842705251720324,0.0814268876034441,0.7512948395980669
0.35131291669734827,0.013469195685189892,1.5684656479150216e-07,0.6854641984296395,0.07954839529764314,0.7566549682415027
0.3519452164804996,0.013544836780746427,1.5784120553736969e-07,0.6867851189082282,0.07771324463607773,0.7621622221593557
0.3525775162636509,0.01362243296340259,1.589394935971549e-07,0.6882087909198906,0.07592043561849941,0.7678115059143483
0.35320981604680224,0.013701916034712706,1.6014261717722123e-07,0.689713497579219,0.07416899131724068,0.773597951744441
0.35384211582995356,0.013783220842262833,1.6145220459392093e-07,0.691279967049861,0.07245795734488225,0.7795169020995641
0.3544744156131049,0.01386628504627033,1.6287031040359533e-07,0.6928910807184825,0.07078640133420194,0.7855638940103212
0.3551067153962562,0.013951048910599399,1.6439940809484939e-07,0.6945316181280192,0.06915341243012235,0.7917346450740924
0.35573901517940754,0.014037455115372762,1.6604238865613637e-07,0.6961880340320084,0.0675581007933802,0.7980250408705967
0.35637131496255886,0.014125448588696111,1.6780256452245613e-07,0.6978482634573754,0.06599959711564742,0.804431123642236
0.3570036147457102,0.014214976355309189,1.6968367856506462e-07,0.6995015511581213,0.06447705214583961,0.8109490820947983
0.3576359145288615,0.014305987400240099,1.716899179256565e-07,0.7011383022951426,0.06298963622735407,0.8175752421917736
0.35826821431201283,0.014398432545769784,1.738259326180123e-07,0.7027499515834424,0.06153653884598521,0.8243060588309093
0.35890051409516416,0.014492264340216561,1.760968589309105e-07,0.7043288485078874,0.06011696818827116,0.831138108305082
0.3595328138783155,0.014587436957227837,1.785083477706426e-07,0.7058681565245798,0.05873015071003101,0.8380680814612445
0.3601651136614668,0.014683906104422106,1.810665981836559e-07,0.7073617644410788,0.05737533071485772,0.8450927774814609
0.36079741344461813,0.014781628940360518,1.8377839640325118e-07,0.7088042084086786,0.05605176994233667,0.8522090982189539
0.36142971322776946,0.014880563998947173,1.8665116087230777e-07,0.7101906031683993,0.054758747165766605,0.8594140430299324
0.3620620130109208,0.014980671120461917,1.8969299381015404e-07,0.7115165813726707,0.05349555779916257,0.8667047040488016
0.3626943127940721,0.015081911388521385,1.9291274001960334e-07,0.7127782399608102,0.052261513513328,0.8740782618603495
0.36332661257722343,0.015184247072344954,1.9632005377383517e-07,0.7139720927013855,0.05105594186078606,0.8815319815277948
0.36395891236037475,0.015287641573772997,1.9992547478678922e-07,0.7150950281311512,0.04987818590936636,0.8890632089401898
0.3645912121435261,0.015392059378547145,2.037405144603646e-07,0.7161442722211799,0.04872760388424772,0.8966693674467388
0.3652235119266774,0.0154974660114172,2.0777775382330803e-07,0.7171173551879909,0.04760356881826162,0.9043479547491883
0.3658558117098287,0.01560382799468759,2.1205095483788448e-07,0.7180120819429834,0.04650546821026654,0.9120965400265905
0.36648811149298005,0.01571111280985879,2.165751870605856e-07,0.7188265057387812,0.04543270369140685,0.9199127612695344
0.3671204112761314,0.015819288862056594,2.2136697201381575e-07,0.7195589046277154,0.04438469069907517,0.9277943228033878
0.3677527110592827,0.0159283254469755,2.2644444807105148e-07,0.7202077603967171,0.04336085815840015,0.9357389929822889
0.368385010842434,0.016038192720091604,2.318275591964449e-07,0.7207717396854948,0.04236064817108738,0.9437446020375334
0.36901731062558535,0.016148861667926343,2.375382715339575e-07,0.7212496770317642,0.041383515711443636,0.9518090400657203
0.3696496104087367,0.01626030408116552,2.436008226397695e-07,0.7216405596194925,0.04042892832941977,0.9599302551435359
0.370281910191888,0.016372492529458382,2.500420091317888e-07,0.7219435135339853,0.03949636586051068,0.968106251557397
0.3709142099750393,0.01648540033773955,2.5689151973903373e-07,0.722157791351998,0.038585320142355564,0.9763350881373734
0.37154650975819065,0.016599001563932736,2.6418232223280566e-07,0.7222827609162198,0.03769529473788441,0.9846148766858741
0.37217880954134197,0.01671327097790465,2.719511145893641e-07,0.7223178950828251,0.03682580466486119,0.9929437804925418
0.3728111093244933,0.016828184040585694,2.8023885217073563e-07,0.7222627471662081,0.03597637613167763,1.0013200129263728
0.3734434091076446,0.01694371687735287,2.8909136301210127e-07,0.7221168676882489,0.03514654627925495,1.0097418358780161
0.37407570889079594,0.017059846265161816,2.9856008037601055e-07,0.7218799519644897,0.034335862928914974,1.0182075581474122
0.37470800867394727,0.01717654962098328,3.0870291428385036e-07,0.7215518139085407,0.0335438843360852,1.0267155347215609
0.3753403084570986,0.01729380498385783,3.195852862700309e-07,0.7211323335921591,0.0327701789497067,1.0352641657070158
0.3759726082402499,0.0174115909993608,3.312813685352903e-07,0.7206214514162849,0.032014325177217126,1.0438518952245253
0.37660490802340124,0.017529886904725206,3.4387557649266017e-07,0.7200191627594917,0.03127591115498447,1.052477210349301
0.37723720780655257,0.01764867251456729,3.574643771557898e-07,0.719325513056502,0.03055453452407216,1.0611386400931244
0.3778695075897039,0.017767928207164392,3.721584940463606e-07,0.7185405932648931,0.029849802211219398,1.0698347544248423
0.3785018073728552,0.017887634911239906,3.8808561373387797e-07,0.7176645356829404,0.029161330214925906,1.0785641633261418
0.37913410715600654,0.018007774093214083,4.053937322100987e-07,0.7166975100857799,0.028488743396534528,1.087325515879776
0.37976640693915786,0.018128327744883457,4.242553245849626e-07,0.7156397201507995,0.027831675276211273,1.0961174993876728
