Time [s],Lmtc [m],STIM [ ],Fsee [N],Gamma [ ],Lcerel [ ]
0.0,0.02105141659543363,0.9999998206338208,1.020887863704406,0.06480604829499512,1.3079012168855915
0.0024562668080391516,0.021088272304509624,0.9999997984565739,1.837824691937632,0.10554195910208,1.307901216873255
0.004912533616078303,0.021050990389399594,0.9999997224509783,2.8635320462385794,0.14450346188618274,1.3025653522420106
0.007368800424117455,0.020984598113541184,0.9999996139838802,3.633611971221104,0.1817678453722419,1.29606096489536
0.009825067232156606,0.020904064444463164,0.9999994807247706,4.173726144239391,0.2174090326124238,1.289126778985292
0.012281334040195758,0.02081680690340466,0.9999993301415582,4.5658912728786385,0.2514977269941281,1.282036599535122
0.01473760084823491,0.020726471322477617,0.9999991688056495,4.869999886075084,0.2841015524759139,1.2749073294004718
0.01719386765627406,0.020634863983050835,0.9999990021212267,5.120743408180655,0.3152851876846496,1.2677936240451697
0.019650134464313213,0.020542908279106025,0.999998834325664,5.337448582462524,0.34511049415975986,1.2607223134693033
0.022106401272352364,0.020451090565196964,0.9999986686165181,5.53107672623423,0.3736366390113275,1.2537066054081443
0.024562668080391516,0.02035967091152911,0.9999985073210463,5.708073140830883,0.40092021224088736,1.246752581825168
0.027018934888430667,0.020268786915290715,0.9999983520659698,5.872386450747982,0.42701533895925153,1.2398624216415566
0.02947520169646982,0.02017850730733622,0.999998203928945,6.0265373138008975,0.4519737867236573,1.2330361039303919
0.03193146850450897,0.02008886091434556,0.9999980635657421,6.172199612581761,0.47584506820603617,1.2262723533699342
0.034387735312548115,0.019999852950314367,0.9999979313132097,6.310527037577258,0.498676539394716,1.2195691852212462
0.03684400212058726,0.01991147450351425,0.9999978072707075,6.442342827879891,0.5205134935230628,1.212924228395369
0.03930026892862641,0.019823708222629608,0.9999976913634842,6.5682536035914225,0.5413992509102484,1.2063349207166387
0.04175653573666556,0.01973653180477442,0.9999975833914351,6.6887197479408815,0.561375244891426,1.1997986282290491
0.04421280254470471,0.019649920173163984,0.9999974830662729,6.804100162043903,0.5804811040070142,1.1933127181982202
0.046669069352743855,0.019563846852981147,0.9999973900396415,6.9146814741990585,0.5987547306135328,1.1868746033125201
0.049125336160783004,0.019478284845567205,0.9999973039242189,7.020697570023545,0.616232376071472,1.1804817676954398
0.05158160296882215,0.019393207182810415,0.999997224309425,7.122342948299053,0.632948712658988,1.1741317813099754
0.0540378697768613,0.01930858727453804,0.9999971507729934,7.21978204874311,0.6489369023538073,1.1678223069136913
0.05649413658490045,0.01922439912032077,0.9999970828893857,7.313155896355462,0.6642286626195808,1.1615511022337381
0.058950403392939596,0.0191406174317022,0.9999970202357945,7.402586922887368,0.678854329327028,1.1553160190965912
0.061406670200978744,0.019057217694957482,0.9999969623963111,7.488182527164669,0.6928429169345758,1.1491150006505337
0.06386293700901789,0.0189741761943331,0.9999969089646953,7.570037747762583,0.7062221760477809,1.142946077432104
0.06631920381705704,0.01889147000913227,0.9999968595460811,7.648237300690023,0.7190186484716564,1.1368073627737358
0.06877547062509619,0.01880907699367257,0.9999968137578703,7.722857155781056,0.7312577198650572,1.130697047881238
0.07123173743313534,0.018726975746248237,0.9999967712300052,7.793965773034645,0.7429636701015436,1.1246133967968786
0.07368800424117448,0.018645145571276615,0.9999967316047655,7.861625084749456,0.7541597214366016,1.1185547413877475
0.07614427104921363,0.01856356643747728,0.9999966945361932,7.925891285066646,0.764868084576742,1.112519476447547
0.07860053785725278,0.018482218934017476,0.9999966596892255,7.986815471710702,0.7751100027418678,1.106506054964974
0.08105680466529193,0.01840108362413763,0.9999966267385908,8.04441219281957,0.7849057938082934,1.1005129835881342
0.08351307147333108,0.018320136843334604,0.9999965953675046,8.098437673161504,0.7942748906160215,1.0945388182983595
0.08596933828137023,0.018239359613334182,0.9999965652661876,8.148865405125175,0.8032358795202242,1.0885821602960222
0.08842560508940937,0.018158734678239696,0.9999965361302177,8.19573364008078,0.8118065372634062,1.0826416520938031
0.09088187189744852,0.018078245168840466,0.9999965076587134,8.239077080880753,0.8200038662413861,1.0767159738082102
0.09333813870548767,0.017997874563245374,0.9999964795523394,8.278927116157528,0.8278441282330573,1.070803839637214
0.09579440551352682,0.01791760664866451,0.999996451511112,8.315312020927621,0.8353428766608335,1.064903994510125
0.09825067232156597,0.017837425484304927,0.9999964232319749,8.348257128745438,0.842514987445774,1.0590152108948694
0.10070693912960511,0.017757315365308127,0.9999963944061011,8.377784979577068,0.849374688518589,1.0531362857473847
0.10316320593764426,0.0176772607876301,0.9999963647158671,8.40391544673181,0.8559355880450649,1.0472660375877811
0.10561947274568341,0.017597246413745698,0.9999963338314267,8.426665845536348,0.862210701421893,1.0414033036880037
0.10807573955372256,0.017517257039045782,0.9999963014067945,8.446051025920047,0.8682124770964431,1.0355469373559818
0.1105320063617617,0.01743727755878543,0.9999962670753245,8.462083450666238,0.8739528212616876,1.0296958053014984
0.11298827316980085,0.017357292935434233,0.999996230444437,8.474773260750322,0.8794431214752471,1.0238487850693065
0.11544453997784,0.017277288166273067,0.9999961910894098,8.484128328911845,0.8846942692493917,1.018004762525221
0.11790080678587915,0.017197248251076012,0.9999961485459943,8.490154302381137,0.8897166816567753,1.0121626293810975
0.1203570735939183,0.017117158159710242,0.999996102301549,8.492854635490607,0.8945203219947307,1.0063212807446835
0.12281334040195745,0.01703700363160125,0.9999960517853035,8.492276047381859,0.8991147195490685,1.0004796126803042
0.1252696072099966,0.016956769031248584,0.999995996365227,8.488352717813243,0.903508988496559,0.9946365738551729
0.12772587401803576,0.0168764375914523,0.9999959353365383,8.480764640606704,0.9077118459839143,0.9887913726881128
0.1301821408260749,0.016795999384273903,0.9999958678938445,8.469505386951957,0.9117316294187714,0.9829433007024265
0.13263840763411405,0.0167154443796265,0.9999957931059372,8.454569197982423,0.9155763130062807,0.9770916443120631
0.1350946744421532,0.016634762388511533,0.999995709885973,8.43594868848381,0.9192535235642869,0.9712356838057087
0.13755094125019235,0.016553943047422793,0.9999956169532542,8.413634835344967,0.9227705556483259,0.9653746922999341
0.1400072080582315,0.016472975801925208,0.9999955127836647,8.387616961477113,0.9261343860161223,0.9595079346574114
0.14246347486627065,0.01639184988933475,0.9999953955445823,8.35788271517833,0.9293516874598755,0.9536346663658357
0.1449197416743098,0.01631055432041651,0.9999952630082357,8.324418044879412,0.9324288420331922,0.9477541323728099
0.14737600848234894,0.016229077860007688,0.9999951124346407,8.287207169167257,0.9353719536980967,0.9418655658715018
0.1498322752903881,0.0161474090064615,0.9999949404108278,8.246232541942895,0.9381868604160544,0.9359681870314317
0.15228854209842724,0.016065535969795274,0.9999947426260092,8.201474812530854,0.9408791457053182,0.9300612016682035
0.15474480890646639,0.01598344664841269,0.9999945135507259,8.152912780515747,0.9434541496850622,0.9241437998454177
0.15720107571450553,0.015901128604254456,0.9999942459684135,8.100523345038255,0.9459169796244673,0.9182151544013435
0.15965734252254468,0.015818569036214626,0.9999939302735468,8.044281448236823,0.9482725200118968,0.9122744193921919
0.16211360933058383,0.01573575475163993,0.999993553388307,7.9841600124711345,0.9505254421549016,0.9063207284430048
0.16456987613862298,0.015652672135707105,0.9999930970316988,7.9201298709086405,0.9526802133148725,0.9003531929962292
0.16702614294666213,0.015569307118447616,0.9999925348394877,7.852159690994057,0.9547411053684004,0.8943709004469862
0.16948240975470127,0.015485645139159836,0.9999918273339758,7.7802158902518945,0.9567122029659105,0.8883729121528551
0.17193867656274042,0.01540167110791469,0.9999909126045715,7.704262543790229,0.9585974111158083,0.882358261304612
0.17439494337077957,0.015317369363821404,0.9999896877252594,7.624261282772355,0.9604004620323258,0.8763259506428148
0.17685121017881872,0.015232723629674368,0.9999879680343852,7.540171182986886,0.9621249208756653,0.8702749500033855
0.17930747698685787,0.015147716962547759,0.9999853858852722,7.45194864243494,0.9637741894683998,0.8642041936733527
0.18176374379489701,0.015062331699839927,0.9999810893265524,7.359547246457566,0.9653515054397369,0.8581125775357715
0.18422001060293616,0.01497654940019149,0.9999725529859284,7.2629176181165,0.9668599282820655,0.8519989559807615
0.1866762774109753,0.014890350778681997,0.9999475048840364,7.162007252981744,0.9683022742189169,0.8458621385591214
0.18913254421901446,0.014803765684511073,0.3813264154847555,7.0592516161908385,0.9696807022552807,0.8397008863705664
0.1915888110270536,0.01471643194482489,1.910502231048633e-05,6.9354622719314465,0.9186772386445098,0.8335172081968081
0.19404507783509276,0.01462834313480446,7.553688815878764e-06,6.787357767748235,0.8390403082939853,0.8273164009270809
0.1965013446431319,0.014539699364716796,3.930441088144815e-06,6.622679633488141,0.7663060434349711,0.8211025943942335
0.19895761145117105,0.014450449030208727,2.2876984454749207e-06,6.437767318776038,0.6998767443512525,0.8148786706813212
0.2014138782592102,0.014360533516141848,1.415983661040899e-06,6.228223769442121,0.6392060098887151,0.8086486926682
0.20387014506724935,0.014269889886092835,9.12103230169725e-07,5.989032532377329,0.583794701159355,0.8024182101782541
0.2063264118752885,0.01417845812083883,6.050961659230719e-07,5.7149175553630345,0.5331869143056719,0.7961946227789595
0.20878267868332764,0.014086195945980842,4.1131776338856434e-07,5.401067750897256,0.48696625261957177,0.789987604089019
0.2112389454913668,0.013993104691483434,2.8584588618651145e-07,5.044312162242568,0.44475240926598103,0.7838095945647098
0.21369521229940594,0.013899268556124592,2.0296603879356346e-07,4.644690454243321,0.4061980420351233,0.7776763763430351
0.2161514791074451,0.013804905991056719,1.472815496704023e-07,4.207091867841054,0.37098591732850245,0.7716077577634092
0.21860774591548424,0.01371042577672039,1.0926974560774646e-07,3.742319336148412,0.33882630095999544,0.7656284222548119
0.22106401272352338,0.013616475581305331,8.289768096187854e-08,3.266840535897931,0.30945457476124727,0.759769065096278
0.22352027953156253,0.013523977323137688,6.42697021661178e-08,2.800944865432961,0.28262905959510176,0.7540682191948134
0.22597654633960168,0.013434174014457874,5.082715404543153e-08,2.365906229591232,0.25812902697315465,0.7485763661453336
0.22843281314764083,0.013348754964788571,4.0871957714096506e-08,1.9807227024331038,0.23575288297534058,0.7433676417515823
0.23088907995567998,0.013270091701706638,3.330785048766208e-08,1.6569464242817586,0.21531650956289422,0.7385687815085685
0.23334534676371912,0.013201371110462353,2.7491555331317185e-08,1.3917467339557257,0.19665174965923765,0.7343961694646715
0.23580161357175827,0.01314596794047474,2.3030854604538227e-08,1.170927159908497,0.1796050235451883,0.7311174524088812
0.23825788037979742,0.013105520288869382,1.9568100630469243e-08,0.9848817590056728,0.16403606518034344,0.7288670033311831
0.24071414718783657,0.013078536471963227,1.6758813488381987e-08,0.8320080214513064,0.14981676805306554,0.727524680351461
0.24317041399587572,0.013061708937935118,1.43579666668757e-08,0.7101299855212475,0.13683013108102815,0.7268385020156111
0.24562668080391487,0.013051416595431478,1.0958307994947579e-07,0.6070278277377832,0.12496929589834684,0.7265829192483441
0.24610550363835762,0.013069041129626306,1.0778239608231953e-07,0.8915725141882257,0.12277981121766651,0.7265829192459459
0.24658432647280037,0.013078393457821412,1.0638034623328898e-07,0.8833788940347634,0.12062868977674239,0.7272984435091511
0.24706314930724313,0.01309083823683422,1.0515589646153402e-07,0.8739349926748111,0.11851525939727828,0.7282447339449547
0.24754197214168588,0.013106383268657894,1.040891647521549e-07,0.8645179428998494,0.11643885967474331,0.7294171009140583
0.24802079497612864,0.013124958791689383,1.0316209462936689e-07,0.8556725636374511,0.11439884177560125,0.7308081695207158
0.2484996178105714,0.013146468824000123,1.023591730436994e-07,0.8476184810429325,0.1123945682346001,0.7324099815460741
0.24897844064501415,0.013170810047522739,1.016672981553289e-07,0.8404254156067938,0.1104254127556263,0.7342146652842967
0.2494572634794569,0.013197879270833096,1.0107546246431806e-07,0.8340914324937229,0.10849076001604559,0.7362146624657467
0.24993608631389966,0.013227576504917397,1.0057442864729966e-07,0.8285800658898851,0.10659000547446705,0.7384028005021217
0.2504149091483424,0.01325980619966114,1.0015644364291007e-07,0.823838888499687,0.1047225551818693,0.7407723053710206
0.25089373198278514,0.013294477655162446,9.981499838134081e-08,0.8198091595489336,0.10288782559603143,0.7433167905073643
0.25137255481722787,0.013331505046561505,9.954462950044604e-08,0.8164309421217092,0.10108524339921088,0.7460302360821907
0.2518513776516706,0.013370807265538022,9.934075676827484e-08,0.8136458162368562,0.09931424531901252,0.7489069649223192
0.2523302004861133,0.01341230767768743,9.919954997770641e-08,0.8113982728316371,0.09757427795239385,0.7519416179070454
0.25280902332055605,0.013455933846121426,9.911781989144889e-08,0.809636367361769,0.09586479759275099,0.7551291301432236
0.2532878461549988,0.013501617247426819,9.909292875209084e-08,0.8083119530145488,0.09418527006003308,0.7584647084949799
0.2537666689894415,0.01354929299359496,9.912271672486165e-08,0.807380675678125,0.09253517053383126,0.7619438106891986
0.25424549182388423,0.01359889956683616,9.920544135785112e-08,0.80680183665964,0.09091398338939129,0.7655621260407046
0.25472431465832696,0.013650378570521815,9.933972772724289e-08,0.8065381857780809,0.08932120203649825,0.7693155577528618
0.2552031374927697,0.013703674497455118,9.95245274018097e-08,0.8065556821247118,0.08775632876118358,0.7732002067070833
0.2556819603272124,0.013758734515532852,9.975908473253806e-08,0.8068232446770706,0.08621887457020454,0.7772123566367645
0.25616078316165514,0.013815508270236542,1.0004290926896836e-07,0.8073125057979814,0.08470835903824832,0.7813484605760924
0.25663960599609786,0.013873947703063227,1.0037575333968244e-07,0.8079975750403298,0.08322431015781295,0.785605128475926
0.2571184288305406,0.013934006884852364,1.007575940232536e-07,0.8088548172181018,0.08176626419171808,0.7899791158842001
0.2575972516649833,0.01399564186291304,1.0118861888808346e-07,0.8098626465696184,0.08033376552819953,0.7944673135951905
0.25807607449942604,0.014058810520862537,1.0166921500289689e-07,0.8110013375316668,0.07892636653854279,0.7990667381794551
0.25855489733386877,0.014123472450128132,1.0219996082049854e-07,0.8122528518576309,0.07754362743721076,0.8037745233138003
0.2590337201683115,0.014189588832122377,1.0278162062063243e-07,0.8136006813567799,0.07618511614442187,0.808587911837851
0.2595125430027542,0.014257122330169385,1.0341514126728732e-07,0.8150297052859002,0.07485040815113661,0.8135042484705898
0.25999136583719695,0.014326036990329787,1.0410165109462495e-07,0.8165260613103441,0.07353908638640881,0.8185209731265517
0.2604701886716397,0.014396298150341168,1.0484246078633753e-07,0.8180770289203635,0.07225074108706171,0.8236356147770896
0.2609490115060824,0.014467872355957583,1.0563906615764547e-07,0.8196709242079538,0.07098496966964737,0.828845785807396
0.26142783434052513,0.014540727284034596,1.064931527889948e-07,0.821297004958397,0.06974137660464957,0.834149176824705
0.26190665717496786,0.014614831671765091,1.0740660249716139e-07,0.8229453850762621,0.06851957329289093,0.8395435518774171
0.2623854800094106,0.014690155251524806,1.0838150166415266e-07,0.8246069574385456,0.06731917794410582,0.845026744048735
0.2628643028438533,0.01476666869083665,1.0942015147805761e-07,0.8262733243429936,0.06613981545764085,0.8505966513919268
0.26334312567829604,0.01484434353700775,1.1052508017386047e-07,0.8279367347935943,0.06498111730524594,0.8562512331774429
0.26382194851273877,0.014923152166034789,1.1169905739714115e-07,0.8295900279359332,0.06384272141591939,0.8619885064249719
0.2643007713471815,0.015003067735410477,1.1294511085053147e-07,0.8312265820215089,0.06272427206277065,0.8678065426960455
0.2647795941816242,0.015084064140498043,1.1426654542278717e-07,0.8328402683414146,0.06162541975186596,0.8737034651251078
0.26525841701606695,0.015166115974171463,1.1566696504449164e-07,0.8344254096260303,0.06054582111302178,0.8796774456690215
0.2657372398505097,0.015249198489446975,1.1715029756396975e-07,0.8359767424585937,0.05948513879251224,0.8857267025568489
0.2662160626849524,0.015333287564856465,1.1872082299339105e-07,0.8374893832969003,0.0584430413476568,0.8918494979234
0.26669488551939513,0.015418359672336429,1.2038320553996426e-07,0.8389587977391502,0.05741920314325541,0.8980441356115784
0.26717370835383786,0.01550439184742649,1.2214252991256103e-07,0.8403807727076431,0.056413304249838966,0.9043089591298935
0.2676525311882806,0.015591361661590156,1.2400434248247047e-07,0.8417513912577772,0.055425030343703136,0.9106423497527396
0.2681313540227233,0.015679247196487483,1.2597469798120162e-07,0.8430670097500541,0.05445407260869448,0.9170427247521591
0.26861017685716604,0.01576802702004435,1.280602125419271e-07,0.8443242371499805,0.053500127639718335,0.9235085357508047
0.26908899969160877,0.015857680164176855,1.3026812403873316e-07,0.8455199162449032,0.05256289734793808,0.9300382671867128
0.2695678225260515,0.015948186104041993,1.326063608548467e-07,0.8466511065885786,0.051642088867636896,0.9366304348813359
0.2700466453604942,0.016039524738696725,1.3508362042437777e-07,0.8477150690036375,0.05073741446471227,0.9432835847030078
0.27052546819493695,0.016131676373058106,1.3770945915054592e-07,0.8487092514894304,0.04984859144677552,0.9499962913186932
0.2710042910293797,0.01622462170106618,1.4049439561789083e-07,0.8496312763982532,0.04897534207482796,0.956767157027486
0.2714831138638224,0.016318341789959813,1.434500294006449e-07,0.8504789287567712,0.048117393476486296,0.9635948106698639
0.2719619366982651,0.01641281806558335,1.4658917824221932e-07,0.8512501456218948,0.047274477560730895,0.970477906607218
0.27244075953270785,0.016508032298648594,1.4992603696480336e-07,0.8519430063714261,0.046446330934149835,0.9774151237666165
0.2729195823671506,0.016603966591883308,1.534763621933715e-07,0.8525557238396786,0.045632694818653514,0.9844051647461939
0.2733984052015933,0.016700603368002727,1.572576878840556e-07,0.8530866362172475,0.044833314970634176,0.9914467549769138
0.27387722803603604,0.016797925358196412,1.6128957770371549e-07,0.8535341953211718,0.04404794160154569,0.9985386419368086
0.27435605087047876,0.016895915587767048,1.6559392066311763e-07,0.8538969062072315,0.04327632929987928,1.0056795943621062
0.2748348737049215,0.01699455736431519,1.7019528081748426e-07,0.854173363569022,0.04251823695451159,1.0128684012360083
0.2753136965393642,0.01709383427673489,1.7512131494731185e-07,0.8543623408877904,0.04177342767940195,1.0201038713434727
0.27579251937380694,0.01719373018436761,1.8040326947285021e-07,0.8544627077224857,0.041041668739616385,1.027384832831831
0.27627134220824967,0.017294229208741824,1.8607657597764736e-07,0.8544734226514538,0.0403227314786564,1.0347101326409793
0.2767501650426924,0.01739531572592101,1.9218156943986902e-07,0.8543935288556003,0.03961639124707167,1.0420786359665584
0.2772289878771351,0.017496974359320176,1.9876435968357533e-07,0.8542221500442527,0.03892242733233606,1.0494892257556299
0.27770781071157785,0.017599189972960675,2.058778955513077e-07,0.8539584866914441,0.03824062288996756,1.0569408022327944
0.2781866335460206,0.01770194766513522,2.1358327338360195e-07,0.8536018125533378,0.037570764875873915,1.0644322824548436
