Time [s],Lmtc [m],STIM [ ],Fsee [N],Gamma [ ],Lcerel [ ]
0.0,0.01946240783400799,0.9999998653049257,1.8987818545226074,0.10236591644358933,1.1892189272310187
0.0013386636604533963,0.019471226121931286,0.9999998538629133,2.59612757118742,0.12389105951517738,1.1880465987061157
0.0026773273209067926,0.01946265299509884,0.9999998346329875,3.248158812337352,0.1449000322356687,1.1859355180602158
0.004015990981360189,0.019442387273056243,0.9999998088789236,3.8283855072264723,0.16540521211488943,1.183257349529601
0.005354654641813585,0.019413852888211413,0.9999997773040392,4.324550356310983,0.18541867988192637,1.1802210359872456
0.006693318302266982,0.019379334893721276,0.9999997404932807,4.737615696518567,0.20495222658844975,1.17694992355443
0.008031981962720378,0.019340477999111892,0.9999996989783605,5.07759228408683,0.2240173605523009,1.173520542636167
0.009370645623173773,0.0192984691932521,0.9999996532528742,5.357367579771027,0.24262531413613586,1.1699819974901775
0.01070930928362717,0.01925416012863968,0.999999603773797,5.589219988397188,0.2607870503638795,1.1663667654044116
0.012047972944080568,0.019208161059528134,0.9999995509589343,5.783505208810222,0.27851326937855486,1.1626969384637764
0.013386636604533965,0.019160910912027394,0.9999994951842754,5.9484593690379075,0.295814414745193,1.158987928544535
0.014725300264987362,0.01911272769985031,0.9999994367824975,6.09044582488103,0.3127006796025359,1.1552507278584945
0.01606396392544076,0.01906384399653351,0.9999993760427519,6.214317179723214,0.329182012667188,1.1514933271074792
0.017402627585894156,0.019014431641588836,0.9999993132114785,6.323759182411317,0.3452681240937824,1.1477216294104626
0.018741291246347554,0.01896461892000834,0.9999992484939223,6.4215750293467195,0.360968491194641,1.1439400543420204
0.02007995490680095,0.018914502554390963,0.9999991820560474,6.509906283559146,0.3762923640223148,1.140151946581646
0.021418618567254348,0.018864156137188316,0.9999991140266113,6.590399447237711,0.3912487708183008,1.1363598583508625
0.022757282227707745,0.01881363611516239,0.999999044499215,6.664329787345121,0.40584652333114934,1.132565748463853
0.024095945888161142,0.018762986080924866,0.999998973534199,6.73269289222372,0.42009422200709357,1.128771125124393
0.02543460954861454,0.018712239884070305,0.9999989011602934,6.796272356091863,0.4340002610562532,1.1249771500363772
0.026773273209067937,0.018661423911422833,0.9999988273759536,6.855689963064487,0.4475728333973916,1.1211847154341292
0.028111936869521334,0.018610558776442628,0.9999987521503345,6.911443076094959,0.4608199354841295,1.1173945018455225
0.02945060052997473,0.018559660584073146,0.9999986754238661,6.963932660128637,0.47374937201544975,1.1136070219397005
0.03078926419042813,0.01850874188730483,0.9999985971083936,7.013484425308694,0.4863687605332607,1.109822654184808
0.032127927850881526,0.01845781241756903,0.9999985170868483,7.060364890894082,0.4986855359097117,1.106041668947997
0.03346659151133492,0.018406879597380812,0.9999984352124061,7.104791172343352,0.5107069547268963,1.1022642489235615
0.03480525517178832,0.018355947086471047,0.9999983513070825,7.146845684118709,0.5224400995515115,1.0984905052577587
0.03614391883224172,0.018305018051007017,0.9999982651596977,7.18662913676817,0.5338918831069749,1.0947204903754486
0.037482582492695114,0.01825409548753984,0.9999981765231251,7.224269772802162,0.5450690523454499,1.090954208255023
0.03882124615314851,0.018203181396552755,0.999998085110712,7.259876014143179,0.5559781924221553,1.087191622711794
0.04015990981360191,0.01815227695471916,0.9999979905917288,7.293540032081694,0.566625730574288,1.0834326641143017
0.041498573474055306,0.018101382653589664,0.9999978925856579,7.325340591061483,0.5770179399068174,1.0796772348580932
0.0428372371345087,0.018050498411878006,0.9999977906550799,7.355345327606546,0.5871609430873624,1.0759252138472417
0.0441759007949621,0.017999623666838688,0.9999976842968424,7.383612587126899,0.5970607159522967,1.0721764601781503
0.0455145644554155,0.01794875744897566,0.999997572931097,7.41019291257942,0.6067230910261632,1.0684308161779705
0.046853228115868895,0.01789789844337709,0.9999974558876632,7.435130257381799,0.6161537609564357,1.064688109917772
0.04819189177632229,0.017847045040254514,0.9999973323890031,7.458462978688612,0.6253582818655862,1.0609481572958048
0.04953055543677569,0.017796195376717006,0.9999972015288479,7.480224654766862,0.63434207662236,1.057210763767018
0.050869219097229086,0.01774534737138899,0.9999970622451897,7.5004447607565945,0.6431104380340988,1.0534757257799852
0.05220788275768248,0.017694498753153747,0.9999969132858834,7.519149229839034,0.6516685319618584,1.0497428319706374
0.05354654641813588,0.017643647085049893,0.9999967531644408,7.536360921222179,0.6600214003600055,1.0460118641528928
0.05488521007858928,0.0175927897841479,0.9999965801026444,7.552100011992532,0.6681739642418643,1.0422825981388582
0.056223873739042675,0.017541924138076377,0.9999963919552042,7.566384326475586,0.6761310265728713,1.0385548044153852
0.05756253739949607,0.01749104731874216,0.9999961861095861,7.579229614072958,0.6838972750925447,1.0348282486989715
0.05890120105994947,0.017440156393688747,0.999995959350955,7.590649784433901,0.6914772850663848,1.031102692387176
0.060239864720402866,0.01738924833545715,0.9999957076772267,7.600657107145722,0.6988755219685389,1.0273778929215738
0.061578528380856264,0.017338320029248767,0.9999954260413568,7.609262381794974,0.7060963440957093,1.0236536040747284
0.06291719204130966,0.017287368279137457,0.9999951079851602,7.616475083184676,0.713144005112194,1.0199295761715654
0.06425585570176305,0.01723638981303534,0.9999947451074219,7.62230348563568,0.7200226565251223,1.0162055562537993
0.06559451936221644,0.017185381286582008,0.9999943262717083,7.626754769608155,0.7267363500875726,1.0124812881946434
0.06693318302266983,0.017134339286098012,0.999993836392102,7.629835113318099,0.7332890401250765,1.0087565127698335
0.06827184668312322,0.017083260330719902,0.9999932545089671,7.631549771566131,0.7396845857772069,1.0050309676900062
0.06961051034357661,0.017032140985376105,0.9999925506186389,7.631908918203499,0.7459267531392785,1.0013043875986463
0.07094917400403,0.016980978172479705,0.9999916802166597,7.6309408461758315,0.752019217276662,0.9975765081922237
0.07228783766448339,0.01692976594888146,0.9999905743476304,7.628482463621522,0.7579655640599484,0.993847126346321
0.07362650132493678,0.01687850174006244,0.9999891200859972,7.624518459758911,0.7637692917175026,0.99011607699076
0.07496516498539017,0.016827183264911273,0.9999871188087367,7.619050413255627,0.7694338118827241,0.9863831932860317
0.07630382864584356,0.016775808186619414,0.9999841858502841,7.612079356197224,0.7749624496155896,0.9826483057316263
0.07764249230629695,0.016724374113383587,0.9999794660470455,7.603605801323767,0.7803584410174415,0.9789112421821414
0.07898115596675034,0.016672878598782477,0.9999705974686344,7.593629763755272,0.7856249240818363,0.9751718278493648
0.08031981962720373,0.016621319141844396,0.999947779961175,7.5821507763524965,0.7907649049154505,0.9714298852927414
0.08165848328765712,0.01656969318944279,0.999756116919625,7.569168029163111,0.7957810825348812,0.9676852344059902
0.08299714694811051,0.01651805056036116,4.134135686550779e-05,7.5573803045741395,0.8006723768717977,0.9639376925441474
0.0843358106085639,0.01646594917420833,1.5418488292029644e-05,7.522799604588989,0.7620674310821857,0.9601890292849838
0.0856744742690173,0.016413762338759574,8.54175693849956e-06,7.483234952532084,0.7253227175768089,0.9564413369202535
0.08701313792947069,0.01636148271353006,5.446094343376591e-06,7.438096087254764,0.6903494566514901,0.9526949795355976
0.08835180158992408,0.016309102412718986,3.732769302536606e-06,7.38670865327502,0.6570624133932498,0.9489504214265084
0.08969046525037747,0.016256613042651306,2.6734334991920107e-06,7.3283085258564995,0.6253803471474267,0.9452082444047087
0.09102912891083086,0.016204005789471114,1.972038853476259e-06,7.262038084517807,0.5952258994625038,0.9414691678611906
0.09236779257128425,0.0161512715864826,1.485776573082071e-06,7.1869459247696215,0.5665254277398931,0.937734072003783
0.09370645623173764,0.016098401394983256,1.1374606635636043e-06,7.1019917048817645,0.5392088334490842,0.9340040247074735
0.09504511989219103,0.016045386641260595,8.818506760286126e-07,7.0060581941046,0.5132093944013283,0.93028031245509
0.09638378355264442,0.015992219861993062,6.907771111478491e-07,6.8979729154995715,0.4884636034870177,0.9265644758854599
0.09772244721309781,0.015938895619146173,5.458640946833122e-07,6.776541947897717,0.464911014471718,0.9228583505018828
0.0990611108735512,0.01588541175147359,4.346770728575003e-07,6.640598317498966,0.44249409487682473,0.9191641131216896
0.10039977453400459,0.0158317710298696,3.4855151720954307e-07,6.489066780031918,0.42115808576837904,0.9154843346622632
0.10173843819445798,0.01577798327413043,2.8130480807858945e-07,6.321045462694599,0.4008508682019947,0.9118220398520481
0.10307710185491137,0.015724067964786908,2.2843882123446696e-07,6.135902634175581,0.381522836045534,0.9081807744150809
0.10441576551536476,0.015670057341806237,1.8662823377705958e-07,5.933383766042709,0.3631267748956644,0.9045646801886494
0.10575442917581815,0.015615999920743119,1.533819630539834e-07,5.713720258370557,0.3456177468082362,0.9009785784766623
0.10709309283627154,0.015561964279718458,1.268131850610149e-07,5.477727314205213,0.3289529805704891,0.8974280617002376
0.10843175649672493,0.01550804288804597,1.054795154084969e-07,5.226875461697235,0.3130917672531112,0.8939195930902918
0.10977042015717832,0.015454355679200851,8.82697314590417e-08,4.9633194422075455,0.29799536079093714,0.8904606138668657
0.11110908381763171,0.015401053046638257,7.432208450969258e-08,4.689870884501474,0.28362688335206016,0.8870596573892536
0.1124477474780851,0.015348317998789548,6.29644905462739e-08,4.409908077474198,0.2699512352659885,0.8837264710132876
0.11378641113853849,0.01529636739208294,5.36701474810693e-08,4.127226698972829,0.25693500929206986,0.8804721508568564
0.11512507479899188,0.015245452503106289,4.602421951890059e-08,3.8458471022546976,0.24454640901964464,0.8773093061408309
0.11646373845944527,0.01519585969390868,3.9698630553443815e-08,3.569801967734076,0.23275517120123504,0.8742522934253895
0.11780240211989866,0.01514791242862715,3.443299511053726e-08,3.302926585543471,0.22153249182951698,0.8713175986861463
0.11914106578035205,0.015101975999184737,3.002041417008022e-08,3.0486587455008296,0.21085095577784632,0.8685244801813801
0.12047972944080544,0.01505846517238339,2.6297255725107566e-08,2.8098318888929708,0.200684469832748,0.8658959546821754
0.12181839310125883,0.015017851403920621,2.3135995182343133e-08,2.588436745915655,0.19100819895500137,0.863459982557441
0.12315705676171222,0.014980659660198854,2.0439640254740607e-08,2.385368936540191,0.18179850561379057,0.8612501351455446
0.12449572042216561,0.014947437597042623,1.8135618038889703e-08,2.200285703794397,0.17303289204581837,0.8593041942507625
0.12583438408261902,0.014918680191984484,1.6167482286103106e-08,2.031780131102901,0.16468994529831793,0.8576588051585075
0.12717304774307242,0.014894713024344818,1.4485440922017068e-08,1.8779572053946267,0.15674928492162296,0.8563399238240071
0.12851171140352582,0.014875577014775333,1.3039744607176102e-08,1.737135659049704,0.14919151318347876,0.855352658484108
0.12985037506397923,0.014860983370919498,1.1780283741101471e-08,1.6082106067492865,0.14199816768363943,0.8546768050506353
0.13118903872443263,0.014850375962776188,1.0661035790084816e-08,1.4905284244330317,0.13515167625330937,0.8542714993385035
0.13252770238488604,0.014843063003231158,9.64472469631567e-09,1.3834808194762038,0.1286353140294929,0.8540859162865464
0.13386636604533944,0.014834970723797955,6.77479498387829e-08,1.2154813444541932,0.1224331625993888,0.8540696963560132
0.13419436905155271,0.01483627831445367,6.68168253067619e-08,1.2426420525923214,0.12095967631722225,0.8540696963560123
0.134522372057766,0.014835686752038647,6.590299351726873e-08,1.2261089754158945,0.11950392492776014,0.8540844683546361
0.13485037506397926,0.014835258882571534,6.500335095717693e-08,1.211440955030214,0.11806569497376485,0.8541049689709441
0.13517837807019253,0.014835016580354009,6.411806994807132e-08,1.1988297363522382,0.11664477556713622,0.8541319983979686
0.1355063810764058,0.014834989828743365,6.324755032089633e-08,1.1885426671590906,0.1152409583580286,0.8541666774542762
0.13583438408261908,0.01483522049733391,6.239254841700804e-08,1.1809510831428702,0.11385403750430306,0.8542106237916465
0.13616238708883235,0.014835768349251535,6.155442163273375e-08,1.17656697680932,0.11248380964134905,0.854266265465035
0.13649039009504563,0.014836719873228101,6.073562118789796e-08,1.1760609218210174,0.111130073852272,0.8543374369263431
0.1368183931012589,0.0148381968989414,5.994071944469668e-08,1.1801091977716724,0.10979263163844566,0.8544305871819886
0.13714639610747217,0.01484034670754341,5.9178347532073523e-08,1.1884967953605234,0.1084712868904315,0.8545573024942001
0.13747439911368545,0.014843294750012979,5.846295810704442e-08,1.1978429205317205,0.10716584585927094,0.8547388987013299
0.13780240211989872,0.014847222934362612,5.781142437459506e-08,1.2023694060720989,0.10587611712814499,0.8550091487517735
0.138130405126112,0.014852525324196382,5.723474205307633e-08,1.200513619359941,0.10460191158433355,0.8554022249061333
0.13845840813232527,0.014859567457062312,5.673496844704536e-08,1.1944752337273103,0.10334304239141247,0.8559369904578473
0.13878641113853854,0.014868531749367407,5.630894190723313e-08,1.1863633773157323,0.1020993249617485,0.856619318453867
0.1391144141447518,0.01487947787586678,5.595183234283628e-08,1.1774232394182764,0.10087057692937006,0.8574491698411741
0.1394424171509651,0.014892406539631836,5.565867414273587e-08,1.168327401263043,0.09965661812320696,0.8584242098484983
0.13977042015717836,0.0149072915438146,5.542488297897869e-08,1.1594364743349506,0.09845727054067122,0.8595412340285752
0.14009842316339163,0.014924094449992664,5.524639845123637e-08,1.1509429527292157,0.0972723583215615,0.8607967355038957
0.1404264261696049,0.014942771452524447,5.511969524185247e-08,1.1429461990463998,0.09610170772228371,0.8621871451058155
0.14075442917581818,0.014963276757637029,5.5041749643424994e-08,1.1354923447594185,0.09494514709038206,0.8637089387138811
0.14108243218203145,0.014985564314470172,5.500999350491396e-08,1.1285963300398045,0.09380250683937585,0.8653586864421291
0.14141043518824473,0.015009588725450568,5.502226768540842e-08,1.1222545480890214,0.0926736194238992,0.8671330745900401
0.141738438194458,0.015035305727156284,5.5076779442864906e-08,1.1164523468384389,0.09155831931513869,0.8690289141354478
0.14206644120067127,0.015062672436768369,5.517206512593461e-08,1.1111686052874115,0.09045644297656684,0.871043142317542
0.14239444420688455,0.015091647466265437,5.530695830450856e-08,1.1063785867603944,0.08936782883996665,0.8731728205974087
0.14272244721309782,0.015122190960186415,5.548056300088055e-08,1.1020557457804823,0.0882923172817447,0.8754151307232818
0.1430504502193111,0.015154264588612259,5.5692231533438385e-08,1.0981728826176065,0.08722975059952902,0.8777673698416609
0.14337845322552437,0.015187831513881221,5.59415464730636e-08,1.0947028820805733,0.08617997298904773,0.8802269451816013
0.14370645623173764,0.01522285634215157,5.6228306257340664e-08,1.0916191824639077,0.08514283052128677,0.8827913686130556
0.1440344592379509,0.015259305066621922,5.655251407284545e-08,1.0888960668094518,0.0841181711199217,0.8854582512522194
0.14436246224416419,0.015297145006646425,5.691436968517952e-08,1.086508835916238,0.0831058445390211,0.8882252982125858
0.14469046525037746,0.015336344745404901,5.731426396341235e-08,1.0844339021239007,0.08210570234101826,0.8910903035563111
0.14501846825659073,0.015376874067802145,5.7752775907961515e-08,1.0826488298937882,0.08111759787494814,0.8940511454739414
0.145346471262804,0.015418703899642103,5.823067204849507e-08,1.0811323407685767,0.08014138625494599,0.8971057817043158
0.14567447426901728,0.015461806248716839,5.874890813192921e-08,1.0798642947138921,0.0791769243390047,0.9002522451965569
0.14600247727523055,0.015506154148184976,5.9308633071190867e-08,1.0788256561051863,0.07822407070798816,0.9034886400100199
0.14633048028144383,0.015551721602439561,5.991119517446502e-08,1.0779984500803501,0.07728268564489708,0.9068131374444793
0.1466584832876571,0.015598483535550028,6.0558150723596e-08,1.0773657132307413,0.07635263111438426,0.9102239723907767
0.14698648629387037,0.015646415742286642,6.125127502068545e-08,1.0769114413887024,0.07543377074251696,0.9137194398910836
0.14731448930008365,0.015695494841686225,6.199257607535631e-08,1.076620536419255,0.0745259697967825,0.917297891897503
0.14764249230629692,0.015745698233085723,6.278431116341725e-08,1.076478753323812,0.07362909516633499,0.9209577342176889
0.1479704953125102,0.01579700405453057,6.362900655279256e-08,1.0764726485385832,0.0727430153424801,0.9246974236363947
0.14829849831872347,0.015849391143453278,6.452948076692329e-08,1.0765895300078485,0.07186760039939429,0.9285154652022444
0.14862650132493674,0.015902838999511466,6.548887184219458e-08,1.0768174093971066,0.07100272197507745,0.93241040966946
0.14895450433115,0.015957327749473216,6.651066913770082e-08,1.0771449566576434,0.07014825325253411,0.9363808510848435
0.14928250733736328,0.016012838114037677,6.75987503770152e-08,1.0775614570455796,0.06930406894118228,0.9404254245108083
0.14961051034357656,0.01606935137648187,6.875742474783126e-08,1.078056770621947,0.06847004525848598,0.9445428038758312
0.14993851334978983,0.016126849353027762,6.999148306302382e-08,1.0786212942072773,0.06764605991180965,0.9487316999442011
0.1502665163560031,0.01618531436482834,7.1306256204296e-08,1.0792459257277538,0.0668319920804914,0.9529908583974758
0.15059451936221638,0.016244729211476024,7.27076833380376e-08,1.079922030866337,0.06602772239813295,0.957319058020538
0.15092252236842965,0.01630507714594171,7.420239172644322e-08,1.080641411916875,0.06523313293510336,0.9617151089856186
0.15125052537464292,0.016366341850857814,7.579779037380342e-08,1.0813962787308196,0.0644481071812542,0.9661778512280893
0.1515785283808562,0.016428507416063463,7.750218027250205e-08,1.0821792216421127,0.06367253002884424,0.9707061529082435
0.15190653138706947,0.016491558317335064,7.932488467791401e-08,1.0829831862550447,0.06290628775567086,0.9752989089536808
0.15223453439328274,0.016555479396229953,8.127640368925959e-08,1.083801449981546,0.06214926800840571,0.9799550396772674
0.15256253739949602,0.016620255840975345,8.336859850274785e-08,1.0846276002176858,0.06140135978613327,0.9846734894659852
0.1528905404057093,0.016685873168339138,8.561491211319673e-08,1.085455514053129,0.060662453424089546,0.9894532255363047
0.15321854341192256,0.01675231720642312,8.803063507939276e-08,1.0862793394125627,0.0599324405775992,0.9942932367520136
0.15354654641813584,0.016819574078067914,9.063322734718048e-08,1.0870934725519332,0.05921121420620902,0.999192532500701
0.1538745494243491,0.016887630181776705,9.344270990816137e-08,1.0878924833756285,0.058498668558016616,1.0041501415843417
0.15420255243056238,0.016956472176695478,9.648214546685902e-08,1.0886711565870342,0.057794699154192046,1.009165110973525
0.15453055543677566,0.017026086975149027,9.97782331827819e-08,1.0894245628349697,0.057099202773691855,1.0142365050013484
0.15485855844298893,0.01709646172681318,1.0336204850314526e-07,1.0901479687859779,0.056412077438163954,1.0193634045486772
0.1551865614492022,0.01716758380592871,1.072699716405592e-07,1.0908368236093704,0.055733222397043335,1.0245449061660463
0.15551456445541548,0.017239440799182285,1.1154486344869053e-07,1.0914867477952668,0.05506253811283822,1.0297801212356053
0.15584256746162875,0.017312020494154028,1.1623756911613915e-07,1.0920935227835598,0.05439992624660759,1.035068175171436
