Time [s],Lmtc [m],STIM [ ],Fsee [N],Gamma [ ],Lcerel [ ]
0.0,0.01965394796301623,0.9999998162130341,0.6270862759774204,0.059358169028595933,1.2077401860252126
0.0016921585212068338,0.019709691493188183,0.9999998220680414,1.7268794150989797,0.08778020198701798,1.2077401860166999
0.0033843170424136676,0.019745792716855257,0.999999816795061,2.730154410409253,0.11534344691123344,1.2077401525958298
0.005076475563620501,0.01975386619592577,0.9999997917090436,3.6490332660767493,0.1420738522435727,1.2063218313622877
0.006768634084827335,0.019740773802385186,0.9999997512346743,4.4247881749183895,0.1679965821167096,1.2038637653392192
0.008460792606034169,0.019713834953382275,0.9999996985013884,5.039911718569975,0.1931360404481464,1.2007995972472711
0.010152951127241003,0.01967779029839216,0.9999996355311,5.513664224383956,0.2175158938714203,1.1973697974015969
0.011845109648447837,0.019635751286164696,0.9999995639898634,5.878012202025587,0.24115909398010188,1.1937116080591306
0.01353726816965467,0.01958973188600922,0.9999994853631856,6.162426287982201,0.2640878989223899,1.189906292312229
0.015229426690861504,0.019541032992299145,0.9999994009932234,6.38956612157407,0.2863238943485098,1.1860039103282654
0.016921585212068338,0.019490503097409132,0.9999993120822623,6.575644491262598,0.3078880137262995,1.1820364795263998
0.018613743733275172,0.019438704733768714,0.9999992196919508,6.731953539266602,0.3288005580430516,1.1780251713832413
0.020305902254482006,0.01938601803078278,0.9999991247456903,6.866314860888884,0.3490812149120309,1.17398439178155
0.02199806077568884,0.019332704902619215,0.999999028034946,6.984174189025768,0.3687490771017491,1.1699241814136045
0.023690219296895673,0.01927894917558449,0.9999989302284636,7.089363161209794,0.38782266050555714,1.1658516782625516
0.025382377818102507,0.01922488205237256,0.9999988318831428,7.184613188344229,0.40631992156855534,1.1617720378137895
0.02707453633930934,0.019170598564427814,0.9999987334555297,7.271899029034583,0.4242582741882676,1.1576890292103232
0.028766694860516175,0.019116168406185748,0.9999986353131954,7.352668978178347,0.4416546061049977,1.1536054317496778
0.03045885338172301,0.01906164320678629,0.9999985377455205,7.428000281334713,0.4585252947972879,1.1495233048851223
0.03215101190292984,0.019007061501506474,0.9999984409736151,7.498705181266234,0.47488622289740995,1.1454441760238434
0.033843170424136676,0.018952452190659864,0.9999983451592425,7.565404149337595,0.490752793141371,1.1413691736596878
0.03553532894534351,0.01889783698611674,0.9999982504127076,7.628577091341158,0.5061399428674632,1.1372991233835943
0.037227487466550344,0.018843232168565264,0.999998156799734,7.688599603069496,0.5210621580769712,1.13323461819994
0.03891964598775718,0.01878864986784996,0.9999980643473844,7.745768957153238,0.5355334870702351,1.1291760707472545
0.04061180450896401,0.018734099008236988,0.9999979730490997,7.8003229515847545,0.5495675536708686,1.1251237525709372
0.042303963030170845,0.018679586014867727,0.9999978828689348,7.852453736885587,0.5631775700505557,1.1210778239958294
0.04399612155137768,0.018625115347706597,0.999997793745072,7.902318070088075,0.5763763491664633,1.1170383570829028
0.04568828007258451,0.018570689909303946,0.9999977055926829,7.950044997606527,0.5891763168229576,1.1130053534351765
0.047380438593791346,0.01851631135916571,0.9999976183062063,7.995741668214557,0.6015895233689559,1.1089787581240096
0.04907259711499818,0.01846198035823702,0.9999975317610996,8.039497772180363,0.6136276550419032,1.1049584706627102
0.050764755636205014,0.018407696354254807,0.999997445815108,8.081367320374158,0.6253020449690404,1.1009443537112198
0.05245691415741185,0.018353456108170726,0.9999973603090911,8.121284271633224,0.636623683836296,1.096936240021743
0.05414907267861868,0.018299257907420236,0.9999972750674341,8.15928242718156,0.6476032302348393,1.0929339380093004
0.055841231199825515,0.01824510000969766,0.999997189898059,8.195409817369441,0.6582510206950205,1.0889372362390857
0.05753338972103235,0.018190980307568737,0.9999971045920468,8.229708075245878,0.6685770794171253,1.0849459070544492
0.05922554824223918,0.018136896390907615,0.9999970189228646,8.262213476987034,0.6785911277081014,1.080959709518494
0.06091770676344602,0.01808284559748712,0.9999969326451846,8.292957779659826,0.6883025931331236,1.076978391804024
0.06260986528465284,0.018028825054095792,0.9999968454932707,8.321968899954895,0.6977206183906038,1.0730016931375175
0.06430202380585967,0.01797483171003181,0.99999675717889,8.3492714672987,0.70685406991899,1.0690293453805495
0.0659941823270665,0.01792086236442573,0.9999966673886964,8.374887277102985,0.7157115462434398,1.0650610743149271
0.06768634084827332,0.01786691368853879,0.9999965757810105,8.398835664142416,0.7243013860702188,1.0610966006844667
0.06937849936948015,0.017812982243947846,0.9999964819819,8.421133811672558,0.7326316761364216,1.057135641035917
0.07107065789068698,0.01775906449734467,0.9999963855804349,8.441797008554746,0.7407102588223936,1.0531779083933264
0.0727628164118938,0.017705156832534173,0.9999962861229578,8.460838864080959,0.748544739533991,1.0492231127936513
0.07445497493310063,0.017651255560102882,0.999996183106163,8.478271488200562,0.756142493861616,1.0452709617062217
0.07614713345430746,0.01759735692514,0.9999960759687239,8.494105643300525,0.7635106745227199,1.0413211603545478
0.07783929197551429,0.017543457113321673,0.9999959640811268,8.508350872477603,0.7706562180942867,1.0373734119555948
0.07953145049672111,0.01748955225561233,0.9999958467332767,8.521015608285476,0.7775858515415827,1.0334274178889666
0.08122360901792794,0.017435638431790884,0.9999957231193036,8.532107265184457,0.784306098549262,1.0294828778062313
0.08291576753913477,0.017381711672972318,0.9999955923188226,8.541632318320108,0.7908232856607119,1.0255394896888332
0.08460792606034159,0.017327767963264906,0.9999954532736594,8.549596370776875,0.7971435482313337,1.021596949861554
0.08630008458154842,0.017273803240678596,0.9999953047587203,8.55600421106732,0.8032728362012321,1.0176549529672676
0.08799224310275525,0.017219813397379588,0.9999951453452245,8.560859862306001,0.8092169196926058,1.0137131919077318
0.08968440162396207,0.017165794279369356,0.9999949733538637,8.564166624265402,0.8149813944368915,1.0097713577543035
0.0913765601451689,0.017111741685652486,0.9999947867945227,8.565927109305546,0.8205716870365147,1.0058291396317771
0.09306871866637573,0.017057651453696865,0.999994583287962,8.566148030267703,0.8259930600658302,1.0018862245779248
0.09476087718758255,0.01700351993608402,0.9999943599669741,8.5648635446689,0.831250617015566,0.9979423012492918
0.09645303570878938,0.01694934076238314,0.9999941133481605,8.561915327031551,0.8363493070848846,0.9939971162515927
0.09814519422999621,0.016895110625747355,0.9999938391434207,8.557273128718428,0.8412939298247728,0.9900504699191753
0.09983735275120303,0.016840826775073064,0.9999935320035764,8.550936703834486,0.8460891396354345,0.9861021638860581
0.10152951127240986,0.016786486410978744,0.9999931851640659,8.54290536112879,0.8507394501200455,0.9821519975339493
0.10322166979361669,0.016732086685311384,0.9999927899389685,8.53317797544337,0.8552492382962499,0.978199767946779
0.10491382831482352,0.016677624700431996,0.9999923349815552,8.52175299721221,0.8596227486651171,0.9742452698535835
0.10660598683603034,0.016623097508293536,0.9999918051751856,8.508628460217201,0.8638640971348118,0.9702882955604564
0.10829814535723717,0.016568502109322245,0.9999911799193574,8.493801987774614,0.8679772747921918,0.9663286348721576
0.109990303878444,0.016513835451111028,0.9999904303875857,8.477270797496704,0.87196615150866,0.9623660750038618
0.11168246239965082,0.016459094426931352,0.9999895149575747,8.45903170474684,0.8758344793542102,0.9584004004834047
0.11337462092085765,0.01640427587406844,0.999988371214774,8.439081124881236,0.8795858957702372,0.9544313930443225
0.11506677944206448,0.016349376571982713,0.9999869011035333,8.417415074342955,0.88322392640486,0.950458831509884
0.1167589379632713,0.016294393240298632,0.9999849412336301,8.394029170637825,0.8867519874139164,0.9464824916682529
0.11845109648447813,0.01623932253662041,0.9999821975667024,8.368918631162988,0.8901733867952322,0.9425021461388883
0.12014325500568496,0.01618416105417148,0.9999780821736494,8.342078270741522,0.8934913237091119,0.9385175642302732
0.12183541352689178,0.016128905319251402,0.9999712236899957,8.313502497459039,0.8967088828869323,0.9345285117891992
0.12352757204809861,0.01607355178850323,0.9999575103706234,8.283185305998835,0.8998290144169644,0.930534751042349
0.12521973056930544,0.016018096846126102,0.999916411134386,8.251120273526945,0.9028544550113302,0.9265360404333655
0.12691188909051226,0.01596254243455253,0.8658775812015569,8.217603120225608,0.9057872383384858,0.9225321344772149
0.1286040476117191,0.015906911753624183,3.668712149983282e-05,8.183884402441635,0.9033704337092658,0.9185230361307244
0.13029620613292592,0.015850834895748095,1.5770473395572325e-05,8.128131394226088,0.8486661204392271,0.9145115565489275
0.13198836465413274,0.015794650169166907,8.890265016675867e-06,8.066106383559736,0.7972733747893276,0.9105010648491271
0.13368052317533957,0.015738353529756884,5.6037461156449e-06,7.99683550667721,0.748992501814098,0.9064927082647116
0.1353726816965464,0.015681941386158776,3.75354012495986e-06,7.919166702098035,0.7036352674835172,0.9024879516759369
0.13706484021775323,0.015625411029452328,2.61190350536883e-06,7.831752429026725,0.6610247063706072,0.8984886481266393
0.13875699873896005,0.015568761311920146,1.8656987341273733e-06,7.733038938556956,0.620994525813138,0.8944971238396338
0.14044915726016688,0.015511993696564084,1.3585887740052725e-06,7.621267611924511,0.583388484690332,0.8905162803061832
0.1421413157813737,0.015455113839986497,1.0042842734639414e-06,7.4944957526772535,0.5480597942079122,0.8865497162648676
0.14383347430258053,0.015398133918883415,7.516163943416713e-07,7.35064613584469,0.5148705497173585,0.8826018725647585
0.14552563282378736,0.015341075955457868,5.685838239834482e-07,7.1875958970441385,0.4836911948284491,0.8786782029454957
0.1472177913449942,0.015283976423894884,4.343460230327234e-07,7.003314943254791,0.4544000170084806,0.8747853735571466
0.148909949866201,0.015226892403340606,3.348990376211663e-07,6.796060526219747,0.42688267324258267,0.8709314934317806
0.15060210838740784,0.015169909448193256,2.6059915394320167e-07,6.564626337682005,0.4010317441576656,0.8671263768866461
0.15229426690861467,0.015113151137315225,2.0467532640277607e-07,6.308630451109827,0.37674631499818173,0.8633818366856747
0.1539864254298215,0.01505678991789288,1.6229957819731476e-07,6.0288074780749294,0.35393158188745416,0.8597120033373857
0.15567858395102832,0.01500105839667389,1.2998665602388438e-07,5.727250539808343,0.3324984818771027,0.8561336607899296
0.15737074247223515,0.014946259743386796,1.0519549203441787e-07,5.4075361115272615,0.3123633453639233,0.8526665818984741
0.15906290099344197,0.014892775541389791,8.6058437552009e-08,5.074669824887844,0.29344756953188983,0.8493338393311867
0.1607550595146488,0.01484106950371184,7.119368464464181e-08,4.7348215325458725,0.2756773115537609,0.8461620628374394
0.16244721803585563,0.01479168619618451,5.957322168674578e-08,4.394869978211773,0.2589832003607068,0.8431816215891367
0.16413937655706246,0.014745245201492056,5.042884764351313e-08,4.061828075899741,0.24330006585886163,0.8404267457658015
0.16583153507826928,0.014702432074292358,4.318514821791003e-08,3.7422260651894184,0.2285666845385373,0.8379356627610111
0.1675236935994761,0.01466398547359244,3.741211293038894e-08,3.4414616642829654,0.21472554048501086,0.8357508055772312
0.16921585212068294,0.014653947963010967,1.3008461975699296e-07,3.9862431464145383,0.20172260085937166,0.8339187002781299
0.1697195502617865,0.014649505619441486,1.2750377072384952e-07,3.8217934622059717,0.19800636597629281,0.83391870027561
0.17022324840289008,0.01464508858171934,1.2497047271279821e-07,3.6617142328258283,0.19435859682595646,0.833918701793969
0.17072694654399365,0.014640701524269715,1.2248384687652406e-07,3.5061113245303135,0.1907780320358429,0.8339187034094862
0.17123064468509722,0.014636348757992811,1.200430333693146e-07,3.355063421862443,0.18726343347221946,0.8339187051320313
0.1717343428262008,0.014632034368128774,1.1764718818777863e-07,3.2086290312552768,0.18381358581200388,0.833918706972838
0.17223804096730436,0.01462776220563146,1.152954828792176e-07,3.0668473197194754,0.18042729612251368,0.8339187089447604
0.17274173910840793,0.014623535880817008,1.1298710425543604e-07,2.929739069828091,0.17710339344895895,0.8339187110625961
0.1732454372495115,0.014619358759186789,1.1072125411190897e-07,2.797307729258199,0.17384072840953418,0.8339187133434891
0.17374913539061507,0.01461523395930315,1.0849714895223811e-07,2.669540533702852,0.17063817279797044,0.8339187158074535
0.17425283353171864,0.014611164352579286,1.063140197178398e-07,2.546409682911023,0.16749461919340947,0.8339187184780358
0.1747565316728222,0.014607152564833744,1.0417111152282654e-07,2.427873550886043,0.16440898057746595,0.8339187213831946
0.17526022981392578,0.014603200979453371,1.0206768339407578e-07,2.3138779128042617,0.16138018995834377,0.8339187245564663
0.17576392795502935,0.014599311742008236,1.0000300801652273e-07,2.204357172956294,0.15840720000187827,0.8339187280385426
0.17626762609613292,0.014595486766168583,9.797637148379029e-08,2.099235579924475,0.1554889826693752,0.8339187318794505
0.1767713242372365,0.014591727740789671,9.598707305439297e-08,1.9984284172864428,0.1526245288621227,0.8339187361416364
0.17727502237834006,0.014588036138061335,9.403442491397322e-08,1.9018431604436965,0.14981284807245177,0.833918740904426
0.17777872051944363,0.014584413222678684,9.211775194443282e-08,1.8093805929187232,0.1470529680412263,0.8339187462707002
0.1782824186605472,0.014580860062108705,9.02363915016171e-08,1.7209358792028067,0.1443439344216424,0.8339187523772199
0.17878611680165077,0.014577377538285037,8.838969320485703e-08,1.6363995974413565,0.14168481044922188,0.8339187594113203
0.17928981494275434,0.014573966361679024,8.657701874539087e-08,1.5556587480916337,0.13907467661788625,0.8339187676393182
0.1797935130838579,0.01457062709035933,8.479774172995493e-08,1.4785977873642344,0.13651263036199818,0.8339187774581337
0.18029721122496148,0.014567360161868388,8.305124760217615e-08,1.4050998351341422,0.13399778574426022,0.8339187894972997
0.18080090936606505,0.014564165965731894,8.133693377435829e-08,1.335048594475709,0.13152927314936438,0.8339188048447002
0.18130460750716862,0.014561045087702515,7.965421050825149e-08,1.2683335389134687,0.12910623898328535,0.8339188256335517
0.1818083056482722,0.014557999768347978,7.800250613262624e-08,1.2048789168349638,0.12672784537811366,0.8339188570090953
0.18231200378937576,0.01455510499046956,7.638146516196873e-08,1.1460621357829357,0.12439326990232712,0.8339189177758636
0.18281570193047933,0.01455341347428116,7.479357649742767e-08,1.1122303510266682,0.12210170527640396,0.8339194859551765
0.1833194000715829,0.014552209124711316,7.324155675037233e-08,1.0863823922285993,0.11985235909372305,0.8339276085369282
0.18382309821268647,0.01455131607911324,7.172554206173655e-08,1.0641676187602103,0.11764445354655828,0.8339458569223034
0.18432679635379004,0.014550785128289737,7.024571822133122e-08,1.0459764372571683,0.11547722515706989,0.8339760531874941
0.1848304944948936,0.014550699995411358,6.880336374224574e-08,1.0325378460574364,0.11334992451329914,0.8340211306694659
0.18533419263599718,0.01455119814491401,6.74019094409306e-08,1.0250547038195463,0.11126181601004709,0.8340861416538846
0.18583789077710075,0.01455251043961343,6.604980484421072e-08,1.0253591043961026,0.1092121775945464,0.8341806248912265
0.18634158891820432,0.014554977191235174,6.476862352450858e-08,1.034571243438143,0.10720030051687149,0.8343251132867946
0.1868452870593079,0.014558870431615332,6.360400893632866e-08,1.044874116831802,0.10522548908509627,0.8345695827127741
0.18734898520041146,0.014564885345658396,6.260489266625935e-08,1.0436237689002688,0.10328706042516485,0.8350127680527273
0.18785268334151503,0.014574285691144984,6.17870941443637e-08,1.0339675682612988,0.10138434424480255,0.8357348134878966
0.1883563814826186,0.01458762343940035,6.113807497217997e-08,1.0214436595483647,0.09951668260110684,0.836755058216124
0.18886007962372217,0.014604966579052954,6.063911227845499e-08,1.0085257454383445,0.09768342967250676,0.8380690764512818
0.18936377776482574,0.014626226975092041,6.027302271122286e-08,0.9961875036849981,0.09588395153533273,0.8396666831631439
0.1898674759059293,0.014651269559362228,6.002543664265916e-08,0.9848019131255115,0.09411762594464472,0.8415365348711042
0.19037117404703288,0.014679947289291893,5.988466319498516e-08,0.9744884603239068,0.09238384211912185,0.8436673830314146
0.19087487218813645,0.014712113519562812,5.984130563628904e-08,0.9652533033696414,0.09068200052991275,0.8460484511937653
0.19137857032924002,0.014747626667144,5.988788341504998e-08,0.9570507516926865,0.08901151269336853,0.8486695427871594
0.1918822684703436,0.014786351925654272,6.00185137046464e-08,0.9498121883756666,0.08737180096758793,0.8515210550695144
0.19238596661144716,0.014828161748476986,6.022865570457406e-08,0.9434603660098884,0.08576229835270424,0.8545939581218576
0.19288966475255073,0.014872935790648342,6.051490934670629e-08,0.9379166686052629,0.08418244829484754,0.8578797610185229
0.1933933628936543,0.014920560610235643,6.08748586316526e-08,0.9331048057023962,0.08263170449371467,0.8613704741893674
0.19389706103475787,0.014970929268662588,6.130695104489408e-08,0.9289526239404501,0.08110953071368136,0.8650585718235952
0.19440075917586144,0.01502394089747463,6.181040620751312e-08,0.9253928989009194,0.07961540059839244,0.8689369559673882
0.194904457316965,0.015079500264925863,6.23851484919039e-08,0.922363567754307,0.07814879748876588,0.8729989229781348
0.19540815545806858,0.015137517358807265,6.303175964531706e-08,0.9198076566633433,0.076709214244349,0.8772381325355334
0.19591185359917215,0.015197906993191604,6.375144852398134e-08,0.9176730464102524,0.07529615306796461,0.8816485791904694
0.19641555174027572,0.015260588442151817,6.45460358958451e-08,0.9159121585821105,0.07390912533358758,0.8862245663304019
0.1969192498813793,0.01532548510104484,6.541795297234039e-08,0.9144816098704414,0.072547651417392,0.8909606823962113
0.19742294802248286,0.015392524174647561,6.63702529249643e-08,0.9133418618155206,0.07121126053191093,0.8958517791712267
0.19792664616358643,0.015461636390766316,6.740663516999707e-08,0.9124568813686967,0.06989949056325212,0.9008929519639621
0.19843034430469,0.015532755737634454,6.853148269799078e-08,0.9117938205014015,0.06861188791131283,0.9060795215143257
0.19893404244579357,0.015605819223307298,6.974991321412122e-08,0.9113227188028861,0.06734800733293908,0.9114070174646592
0.19943774058689714,0.015680766655272592,7.106784537042427e-08,0.9110162304471312,0.06610741178797581,0.9168711632498453
0.19994143872800071,0.015757540438564407,7.249208194201548e-08,0.910849375401065,0.06488967228815422,0.9224678622736248
0.20044513686910428,0.015836085390770915,7.403041246120451e-08,0.9107993138869916,0.0636943677487646,0.9281931852507072
0.20094883501020785,0.015916348572442136,7.56917386175019e-08,0.9108451426533419,0.06252108484306398,0.9340433586058341
0.20145253315131142,0.015998279131524046,7.748622671016543e-08,0.9109677113962673,0.06136941785936828,0.9400147538316519
0.201956231292415,0.016081828160562903,7.9425492671285e-08,0.9111494576131038,0.060238968560780086,0.9461038777169594
0.20245992943351857,0.016166948565535813,8.152282675245079e-08,0.9113742581975682,0.05912934604750427,0.9523073633657013
0.20296362757462214,0.01625359494526867,8.379346701065173e-08,0.9116272961663783,0.0580401666217041,0.9586219619350169
0.2034673257157257,0.01634172348049917,8.625493341037445e-08,0.9118949410142887,0.056971053654852534,0.9650445350277576
