Time [s],Lmtc [m],STIM [ ],Fsee [N],Gamma [ ],Lcerel [ ]
0.0,0.020162298352814745,0.999999952705238,1.5697364166519407,0.09225282377048336,1.2412068649944432
0.0018289037166448149,0.020174033609492225,0.9999999446745332,2.5254805620704524,0.12186089283305596,1.2394457823462028
0.0036578074332896298,0.020153887966417556,0.9999999305235331,3.3694671003729555,0.15050323260446402,1.2360599881001322
0.005486711149934445,0.020115621675295438,0.999999911396656,4.0551814150135606,0.17821134216350232,1.2318847732003997
0.0073156148665792595,0.020066167536492548,0.9999998880881675,4.5826226667218,0.20501569321803076,1.2272922792521999
0.009144518583224074,0.020009782728745863,0.9999998613380519,4.984187669513761,0.23094576360340238,1.2224679761114483
0.010973422299868888,0.019949098547196224,0.9999998318392017,5.295143183602941,0.2560300696979216,1.2175110721635094
0.012802326016513703,0.01988572892678598,0.999999800222404,5.542970457316043,0.28029619778123827,1.2124778952983597
0.014631229733158517,0.019820671901019812,0.9999997670449696,5.746830176842667,0.30377083436943286,1.207402098367479
0.016460133449803332,0.019754555449966883,0.9999997327867446,5.919580575165724,0.3264797955602886,1.2023046269390583
0.018289037166448148,0.019687783188165376,0.9999996978519006,6.069805752781961,0.3484480554212757,1.1971989201460225
0.020117940883092964,0.019620619885243003,0.9999996625742874,6.203276727180026,0.36969977345166133,1.1920937980109716
0.02194684459973778,0.01955324255241313,0.9999996272245689,6.323937384152922,0.3902583211490595,1.1869951256339282
0.023775748316382597,0.01948577113396507,0.9999995920179594,6.434518964460375,0.41014630770969,1.181906827785834
0.025604652033027413,0.01941828780988152,0.9999995571218299,6.536955565997202,0.4293856048906233,1.1768315087641599
0.02743355574967223,0.01935084909616979,0.9999995226627528,6.632637054155874,0.4479973710613374,1.1717708640090994
0.029262459466317045,0.019283493863082125,0.9999994887328154,6.7225856921219425,0.4660020744710143,1.1667259464684603
0.03109136318296186,0.019216248568675955,0.9999994553951336,6.807564124647995,0.4834195157571312,1.1616973545473614
0.03292026689960668,0.019149130674633436,0.9999994226885882,6.888143689914516,0.5002688497200651,1.1566853589088681
0.03474917061625149,0.01908215110674626,0.9999993906318427,6.964761124955966,0.5165686063876284,1.1516899841850132
0.0365780743328963,0.019015316206953854,0.9999993592266855,7.037766701414395,0.5323367113926731,1.1467110713557918
0.038406978049541116,0.01894862892727885,0.9999993284607719,7.107439876768014,0.5475905056861441,1.141748335940715
0.04023588176618593,0.01888208947677008,0.9999992983098986,7.173994323759303,0.5623467646072403,1.136801403343674
0.04206478548283074,0.018815696046477124,0.9999992687398641,7.237602937482138,0.5766217163316358,1.1318698218784058
0.043893689199475554,0.018749445404629875,0.9999992397079169,7.298412673989907,0.5904310597180361,1.1269530824239478
0.045722592916120366,0.018683333244497242,0.9999992111638749,7.356546841880244,0.603789981572678,1.1220506388869114
0.04755149663276518,0.018617354418665105,0.9999991830509825,7.412107752460318,0.6167131733507476,1.1171619201583944
0.04938040034940999,0.01855150313996929,0.9999991553065241,7.465181537173765,0.6292148473130761,1.112286336808284
0.051209304066054805,0.018485773134789506,0.9999991278622192,7.515841461963812,0.6413087521558702,1.1074232867185063
0.05303820778269962,0.018420157747535717,0.9999991006444257,7.564149710272623,0.6530081881306586,1.1025721595185467
0.05486711149934443,0.018354647262842964,0.9999990735741593,7.610016118087666,0.6643260216710785,1.0977323400725456
0.05669601521598924,0.018289232524167514,0.9999990465669427,7.653381477086788,0.6752746995425767,1.0929032111642087
0.058524918932634055,0.018223906334736174,0.9999990195324825,7.694289421777957,0.6858662625305865,1.0880841555197418
0.06035382264927887,0.018158661372055147,0.9999989923741777,7.732777797084933,0.6961123586822233,1.0832745576330534
0.06218272636592368,0.018093490243844153,0.9999989649884419,7.7688811294138365,0.7060242561160603,1.078473804113953
0.0640116300825685,0.018028385458792186,0.9999989372638313,7.802627714273012,0.7156128554140638,1.0736812854030666
0.06584053379921331,0.017963339538045235,0.9999989090799474,7.834046694313777,0.7248887016093108,1.0688963938321494
0.06766943751585813,0.017898344924872665,0.9999988803060877,7.863160194487037,0.7338619957826679,1.0641185278436462
0.06949834123250295,0.017833394053824773,0.9999988507996067,7.88998963981031,0.7425426062811717,1.0593470880867675
0.07132724494914777,0.01776847932185022,0.9999988204039126,7.914552912420924,0.7509400795704533,1.054581479145845
0.07315614866579259,0.01770359315038266,0.9999987889460311,7.936868529312492,0.7590636507331148,1.0498211081796867
0.07498505238243741,0.017638727871340368,0.9999987562336526,7.956947895986074,0.7669222536246026,1.0450653872306543
0.07681395609908223,0.01757387590745384,0.9999987220515177,7.9748085964388995,0.7745245306977313,1.0403137279390084
0.07864285981572705,0.017509029585741267,0.9999986861569814,7.990459364469234,0.78187884250664,1.0355655486234505
0.08047176353237187,0.017444181236585282,0.9999986482745628,8.003910563381936,0.7889932769006138,1.0308202669846553
0.08230066724901669,0.017379323159633666,0.9999986080891553,8.015170572728318,0.7958756579178515,1.0260773025567318
0.08412957096566151,0.017314447609025674,0.9999985652375458,8.024245761126503,0.8025335543889216,1.0213360756241503
0.08595847468230633,0.017249546862508257,0.9999985192976972,8.031145013996143,0.8089742882593245,1.016596006009205
0.08778737839895115,0.017184613134176168,0.9999984697751048,8.035872947286284,0.8152049426402453,1.0118565160073343
0.08961628211559597,0.017119638522268908,0.9999984160852745,8.038429666644351,0.8212323695962707,1.007117026883405
0.09144518583224079,0.01705461522432365,0.9999983575309538,8.038824949595648,0.8270631976785227,1.0023769550803252
0.09327408954888561,0.016989536262335934,0.9999982932740535,8.037109899706003,0.8327038392113368,0.9976357216285614
0.09510299326553043,0.01692439052704526,0.9999982223001843,8.033045153667343,0.8381604973403576,0.9928928462467475
0.09693189698217525,0.016859171837222874,0.9999981433634476,8.02657751266318,0.8434391728495899,0.9881479538843011
0.09876080069882007,0.016793874931840723,0.9999980549118979,8.017701280208813,0.8485456707542937,0.9834006728835464
0.10058970441546489,0.016728494584878892,0.999997954985476,8.006419096573998,0.8534856066764094,0.9786506241945061
0.1024186081321097,0.016663025390168666,0.9999978410704469,7.992724496821239,0.8582644130087046,0.973897429668187
0.10424751184875453,0.016597461845220363,0.9999977098869771,7.976612267693353,0.862887344873119,0.9691407039745308
0.10607641556539935,0.016531798400778376,0.9999975570707845,7.958079923569712,0.8673594858778314,0.9643800562023407
0.10790531928204417,0.01646602939132411,0.999997376681809,7.9371218913665995,0.871685753676172,0.9596150928331832
0.10973422299868898,0.016400149027287918,0.9999971604196324,7.913730964266836,0.8758709053281882,0.9548454152275615
0.1115631267153338,0.016334151412864012,0.999996896318451,7.887900129011162,0.8799195424617423,0.9500706184545823
0.11339203043197862,0.01626803052956475,0.9999965664686281,7.8596213510539545,0.8838361162227043,0.9452902918286098
0.11522093414862344,0.016201780167209225,0.9999961427979059,7.828882457334027,0.8876249319893686,0.940504018283567
0.11704983786526826,0.016135394159018556,0.9999955786645361,7.7956821122629485,0.8912901537954956,0.9357113707681178
0.11887874158191308,0.016068866008895157,0.9999947904529727,7.760002687074737,0.8948358083348816,0.9309119228732264
0.1207076452985579,0.016002189136671795,0.9999936118704792,7.721834145040026,0.8982657882350249,0.9261052336104991
0.12253654901520272,0.01593535682350385,0.999991658183565,7.681165816969961,0.9015838537333142,0.9212908549428123
0.12436545273184754,0.01586836218542733,0.9999877921145053,7.63798533349374,0.9047936298703777,0.9164683314681088
0.12619435644849236,0.015801198120144383,0.999976522945971,7.59227693716537,0.9078985863542542,0.9116371990650685
0.12802326016513718,0.0157339187038981,0.005258275927488804,7.547183703342769,0.910901900631781,0.9067969818938583
0.129852163881782,0.015666042650124314,8.482667605511176e-06,7.476208316063931,0.8517734965552543,0.9019502594353208
0.13168106759842682,0.01559795688887847,3.5263836073159e-06,7.397059871794038,0.7961628054812734,0.8971004180564791
0.13350997131507164,0.015529648249148561,1.945417055621341e-06,7.308560406783232,0.7441825871269926,0.8922483886623215
0.13533887503171646,0.015461099383205945,1.2030695455053267e-06,7.209158523108104,0.6955960299777184,0.8873954107490043
0.13716777874836128,0.015392291487301289,7.911081007767472e-07,7.09702747866942,0.6501816182148559,0.8825431251152862
0.1389966824650061,0.015323204874137599,5.403890595377194e-07,6.970062677740993,0.6077322655032299,0.8776936638747169
0.14082558618165092,0.015253819937639888,3.787597540729911e-07,6.82589342685631,0.5680543950355454,0.8728497635312624
0.14265448989829574,0.015184119127556742,2.7044834737239865e-07,6.661947684764618,0.5309670638339933,0.8680148920062435
0.14448339361494056,0.015114090256158567,1.958418846912166e-07,6.475575310537646,0.49630114026862826,0.8631934044670592
0.14631229733158538,0.015043731461802119,1.4339151535835363e-07,6.264241262960038,0.46389853395492087,0.8583907301604696
0.1481412010482302,0.014973058673487579,1.0593059690573037e-07,6.025824300628658,0.4336114754024479,0.8536135841748809
0.14997010476487502,0.014902115887613358,7.883275620773352e-08,5.759005289407939,0.40530184245459505,0.8488702218143445
0.15179900848151984,0.014830988582498015,5.9019866657673146e-08,5.463727790796712,0.37884053058444606,0.8441707384963301
0.15362791219816466,0.014759818166112966,4.4395409681296336e-08,5.141586976909773,0.3541068642389908,0.8395274322133661
0.15545681591480948,0.014688819100535887,3.350505384147476e-08,4.796227672141532,0.33098804657940406,0.8349551449949997
0.1572857196314543,0.014618294872232124,2.532524029265279e-08,4.433456790483276,0.30937864512536745,0.8304717295265475
0.15911462334809912,0.01454864825390284,1.9127142360321058e-08,4.0609270144154745,0.28918011096763097,0.8260985903355432
0.16094352706474394,0.014480389800644047,1.4386721686839782e-08,3.687674129601023,0.27030032936208376,0.8218611721755168
0.16277243078138875,0.01441414396288812,1.0723921490987297e-08,3.323332051552124,0.25265319965945704,0.8177898149346107
0.16460133449803357,0.01435065744226735,7.861081929288609e-09,2.9771812928407866,0.23615824265725277,0.8139212863440538
0.1664302382146784,0.014290821016514497,5.594949569400781e-09,2.6572608697749063,0.22074023358476805,0.8103016215143063
0.16825914193132321,0.014235703773320394,3.778795624806893e-09,2.3692916806683266,0.20632885904853063,0.8069910797829571
0.17008804564796803,0.014186559239921697,2.3106130085868282e-09,2.1152319761597425,0.19285839637444083,0.8040692533859907
0.17191694936461285,0.014144706128814275,1.1209859902853353e-09,1.8924988463123078,0.18026741388474546,0.8016309363475074
0.17374585308125767,0.01411118027186318,1.5661834431475158e-10,1.6957519853515064,0.16849849074299833,0.7997588854626488
0.1755747567979025,0.014086237970621383,-6.335227195069542e-10,1.5205964170181157,0.15749795508913825,0.7984783697003283
0.1774036605145473,0.014069109210484395,-1.299232554818854e-09,1.3652457384326433,0.14721563927070155,0.7977331588381164
0.17923256423119213,0.014058305957403736,-1.8812655099950672e-09,1.2290625063686835,0.13760465105480885,0.7974110360905506
0.18106146794783695,0.014047839995624846,-2.4119590876467145e-09,1.0263766985385918,0.12862115977812535,0.7973914333103379
0.18289037166448177,0.014038163526049741,2.387187565797702e-08,0.8509174590755262,0.12022419645894997,0.7973914249598185
0.1832836901700592,0.014047535285708915,2.3394381881083708e-08,1.0206030056845872,0.11849126043704805,0.7973914249598187
0.1836770086756366,0.014048951548345193,2.2938720865196276e-08,1.0234718045350888,0.11678330538339432,0.7974836165729117
0.18407032718121402,0.01405116894589497,2.2502000696471294e-08,1.0313807613768216,0.11509997118752119,0.7976148876277398
0.18446364568679144,0.014054347109611077,2.2093094248753574e-08,1.039811989674263,0.11344090293005776,0.7978143120738247
0.18485696419236886,0.014058790921538031,2.1721827240515457e-08,1.0419790251189889,0.1118057508080675,0.7981299572070777
0.18525028269794627,0.014065095954481332,2.1393172267256967e-08,1.037552202059143,0.11019417006130686,0.7986064181588647
0.1856436012035237,0.01407368459398263,2.1106431311977e-08,1.0296673080771228,0.10860582089946232,0.7992626130187737
0.1860369197091011,0.014084708411665842,2.0858488465097444e-08,1.0204631241494544,0.10704036843042569,0.800101502061762
0.18643023821467852,0.014098185310461284,2.064581624070431e-08,1.0110113348975736,0.10549748258964918,0.8011203132642748
0.18682355672025594,0.01411407878669062,2.0465117697646414e-08,1.0018337071230525,0.10397683807054835,0.8023143733904777
0.18721687522583336,0.01413233071197384,2.031348458510984e-08,0.9931791429208509,0.10247811425591764,0.8036784614874909
0.18761019373141077,0.014152874700684992,2.0188402386269087e-08,0.9851588071600358,0.10100099515033638,0.8052072784056333
0.1880035122369882,0.01417564207698408,2.0087717304205097e-08,0.9778139231293893,0.09954516931354972,0.8068956275899802
0.1883968307425656,0.014200564697538432,2.0009593789286394e-08,0.9711459500067359,0.09811032979480935,0.8087385077839565
0.18879014924814302,0.014227576181080783,1.995247167036631e-08,0.965135575551779,0.09669617406815993,0.8107311305052772
0.18918346775372044,0.014256612535282175,1.9915029465173666e-08,0.9597523673508264,0.09530240396865791,0.8128689287034232
0.18957678625929786,0.014287612305491906,1.989615039857452e-08,0.9549583104669515,0.09392872562950914,0.8151475539447164
0.18997010476487527,0.014320516757976649,1.989489900192927e-08,0.9507180808368024,0.09257484942011232,0.8175628488499742
0.1903634232704527,0.014355269999601551,1.9910499162520302e-08,0.9469914960958423,0.09124048988499531,0.8201108855413974
0.1907567417760301,0.014391818572686288,1.9942311103570666e-08,0.9437399523726876,0.08992536568363091,0.8227879101845955
0.19115006028160753,0.014430111388716301,1.9989816279499362e-08,0.9409258560552966,0.08862919953112061,0.8255903400334959
0.19154337878718494,0.014470099762105462,2.0052607698010574e-08,0.9385168316715097,0.08735171813973243,0.8285147486425198
0.19193669729276236,0.014511737353642263,2.0130378912943817e-08,0.9364787736321614,0.08609265216128209,0.8315578892625062
0.19233001579833978,0.014554979714058506,2.0222910581920207e-08,0.9347790824713182,0.08485173613034405,0.8347166483376831
0.1927233343039172,0.0145997843112163,2.0330066353825652e-08,0.9333905187593724,0.0836287084082814,0.8379880317056794
0.1931166528094946,0.014646110740761595,2.0451791800061423e-08,0.9322887853718959,0.0824233111280822,0.8413691894157621
0.19350997131507203,0.01469392021885329,2.0588101860811236e-08,0.931442950408681,0.08123529013999126,0.8448574171648273
0.19390328982064944,0.014743175263395107,2.073907715994649e-08,0.9308323156901621,0.08006439495792529,0.8484500649506171
0.19429660832622686,0.014793840162437937,2.0904868175907185e-08,0.9304355172099262,0.07891037870666062,0.8521446149693718
0.19468992683180428,0.014845880801250162,2.108569329137735e-08,0.9302347672763572,0.07777299806978213,0.8559386518030638
0.1950832453373817,0.014899264292709666,2.128183157705699e-08,0.930205672331922,0.07665201323838257,0.8598298764550223
0.1954765638429591,0.014953958721991767,2.149362293908001e-08,0.9303336986930499,0.07554718786050137,0.8638160212485088
0.19586988234853653,0.015009933599343377,2.1721474712560407e-08,0.9306024705892613,0.07445828899129209,0.8678949299631646
0.19626320085411395,0.015067159677440597,2.196586247803718e-08,0.930999313875952,0.07338508704390859,0.8720645221156876
0.19665651935969136,0.015125608665979996,2.2227326552194624e-08,0.9315049167527989,0.07232735574109904,0.8763228138044338
0.19704983786526878,0.01518525297942123,2.2506474430110634e-08,0.9321086943986422,0.07128487206749765,0.8806678373346055
0.1974431563708462,0.015246066175237445,2.280399009909774e-08,0.9327984369837673,0.07025741622260431,0.8850977148821344
0.1978364748764236,0.015308022823562526,2.3120638242556162e-08,0.933565144794671,0.06924477157444206,0.8896106294898681
0.19822979338200103,0.015371098238892267,2.345726368673913e-08,0.9343931690100434,0.06824672461388268,0.8942048451973972
0.19862311188757845,0.015435268228440924,2.3814796588247504e-08,0.9352746923333466,0.06726306490963076,0.8988786303716423
0.19901643039315586,0.015500509538206994,2.4194265687112968e-08,0.9362008459524653,0.06629358506385676,0.9036303259952417
0.19940974889873328,0.015566799622919143,2.4596803419399164e-08,0.9371625002495872,0.06533808066846968,0.9084583257013603
0.1998030674043107,0.01563411657220603,2.5023654827944784e-08,0.9381516999733003,0.06439635026202038,0.9133610646177159
0.2001963859098881,0.015702439087486787,2.547618805676066e-08,0.9391603077158873,0.06346819528722611,0.9183370231344257
0.20058970441546553,0.015771746597854974,2.5955910437034913e-08,0.9401843916884709,0.06255342004910747,0.9233847177408235
0.20098302292104295,0.015842019040117054,2.6464476158883238e-08,0.9412115658512249,0.061651831673729354,0.9285027358010061
0.20137634142662036,0.015913236552491487,2.7003700598821028e-08,0.9422379212846326,0.06076324006753631,0.9336896452778825
0.20176965993219778,0.015985379976810016,2.7575586254538508e-08,0.9432575494718521,0.05988745787727479,0.9389440733958778
0.2021629784377752,0.0160584306362517,2.8182340971874115e-08,0.9442648909219286,0.05902430045049321,0.944264681016486
0.20255629694335262,0.01613237029902014,2.8826402120238536e-08,0.9452544946746075,0.058173585796611714,0.9496501609580832
0.20294961544893003,0.01620718114332441,2.951046466960522e-08,0.9462213081232911,0.05733513454855355,0.9550992342873782
0.20334293395450745,0.016282845746423115,3.02375141427341e-08,0.9471606038036382,0.05650876992492992,0.9606106498199513
0.20373625246008487,0.01635934707735806,3.101086505685073e-08,0.9480680846518581,0.05569431769277043,0.9661831831760039
0.20412957096566228,0.01643666846960988,3.1834205050368134e-08,0.9489392965261656,0.05489160613079141,0.9718156371403797
0.2045228894712397,0.016514793587097353,3.2711646734740666e-08,0.9497703136506281,0.054100465993194166,0.9775068364498807
0.20491620797681712,0.016593706409962664,3.364778864315447e-08,0.9505570204555902,0.05332073047398617,0.983255629630737
0.20530952648239453,0.01667339122308668,3.464778783483363e-08,0.9512961761924651,0.05255223517181709,0.9890608839172002
0.20570284498797195,0.016753832632757093,3.571744601112163e-08,0.9519842982941672,0.05179481805532307,0.9949214909289904
0.20609616349354937,0.016835015511861087,3.686331049893915e-08,0.9526179770367609,0.05104831942897163,1.0008363614239288
0.20648948199912678,0.01691692498293245,3.8092796039365535e-08,0.953194046321176,0.05031258189940059,1.0068044233859939
0.2068828005047042,0.016999546435840358,3.941433262126624e-08,0.9537097812818195,0.04958745034224365,1.0128246225327329
0.20727611901028162,0.017082865497223734,4.083754273553977e-08,0.9541619033583533,0.04887277186943676,1.0188959240556743
0.20766943751585903,0.01716686801128487,4.2373458814167743e-08,0.954548255115322,0.04816839579699785,1.025017304552809
0.20806275602143645,0.017251540071750823,4.403479029071635e-08,0.9548661181453928,0.04747417361327472,1.0311877610629858
0.20845607452701387,0.017336867968856536,4.5836251633920594e-08,0.9551131427138568,0.0467899589476539,1.037406303502463
0.20884939303259129,0.017422838350254856,4.779498110914474e-08,0.9552898452705963,0.04611560753972584,1.0436719564574397
0.2092427115381687,0.0175094376649734,4.993102248573172e-08,0.9553827544708869,0.04545097720890026,1.0499837857401821
