Time [s],Lmtc [m],STIM [ ],fGM [N],fGL [N]
0.0,0.047501690685749054,0.00030517578125,0.2757948040962219,0.07496417313814163
0.0004999999999999449,0.04750186949968338,0.00030517578125,0.2756612300872803,0.07441738992929459
0.0010000000000000009,0.047502074390649796,0.0,0.2755688726902008,0.07452301681041718
0.0014999999999999458,0.04750226065516472,0.00030517578125,0.27621346712112427,0.07490478456020355
0.0020000000000000018,0.047502171248197556,0.0006103515625,0.27565836906433105,0.07319232076406479
0.0024999999999999467,0.04750189930200577,0.0006103515625,0.2759504020214081,0.07411544024944305
0.0030000000000000027,0.04750217869877815,0.00030517578125,0.2757542133331299,0.07455632090568542
0.0034999999999999476,0.047501806169748306,0.00030517578125,0.27590736746788025,0.07435572147369385
0.0040000000000000036,0.04750227928161621,0.00030517578125,0.2758227288722992,0.07560019940137863
0.0044999999999999485,0.04750177264213562,0.0006103515625,0.2756868004798889,0.07450449466705322
0.0050000000000000044,0.047501951456069946,0.0006103515625,0.2759557366371155,0.07446614652872086
0.005499999999999949,0.04750163108110428,0.0,0.2756117582321167,0.07436030358076096
0.006000000000000005,0.047501806169748306,0.0006103515625,0.2752068340778351,0.07443146407604218
0.00649999999999995,0.04750170558691025,0.00030517578125,0.27415797114372253,0.07389942556619644
0.007000000000000006,0.047500550746917725,0.00030517578125,0.2716802656650543,0.07356031239032745
0.007499999999999951,0.0474986806511879,0.00030517578125,0.26808127760887146,0.07412451505661011
0.008000000000000007,0.047495223581790924,0.0006103515625,0.2634236216545105,0.07394123822450638
0.008499999999999952,0.04749000445008278,0.0,0.25783035159111023,0.07458912581205368
0.009000000000000008,0.047482870519161224,0.00030517578125,0.2505190074443817,0.0742439404129982
0.009499999999999953,0.04747413843870163,0.001220703125,0.24372170865535736,0.07496198266744614
0.010000000000000009,0.047462936490774155,0.00091552734375,0.23561136424541473,0.07416710257530212
0.010499999999999954,0.04745011031627655,0.0,0.227967768907547,0.0740666463971138
0.01100000000000001,0.04743611067533493,0.0006103515625,0.22092631459236145,0.07433229684829712
0.011499999999999955,0.047420136630535126,0.0,0.2139657437801361,0.07327742874622345
0.01200000000000001,0.0474037267267704,0.0006103515625,0.20787417888641357,0.07432051002979279
0.012499999999999956,0.04738659784197807,0.00030517578125,0.20225656032562256,0.07410629838705063
0.013000000000000012,0.047369230538606644,0.00030517578125,0.1977909952402115,0.07453612983226776
0.013499999999999956,0.0473509319126606,0.00091552734375,0.19339008629322052,0.0737665668129921
0.014000000000000012,0.04733274132013321,-0.00030517578125,0.1895640343427658,0.0737655833363533
0.014499999999999957,0.047314804047346115,0.00030517578125,0.1860981434583664,0.073299840092659
0.015000000000000013,0.04729635268449783,0.0006103515625,0.18252325057983398,0.07255462557077408
0.015499999999999958,0.047278694808483124,0.00091552734375,0.17873546481132507,0.07369837164878845
0.016000000000000014,0.047260552644729614,0.00030517578125,0.1761273443698883,0.07263818383216858
0.01649999999999996,0.04724327474832535,0.0006103515625,0.17280244827270508,0.0727810189127922
0.017000000000000015,0.047225482761859894,0.0,0.1691795438528061,0.07206376641988754
0.01749999999999996,0.0472082756459713,0.00030517578125,0.16602347791194916,0.07279796153306961
0.018000000000000016,0.047190628945827484,0.00030517578125,0.16293281316757202,0.07253286242485046
0.01849999999999996,0.04717321693897247,0.0,0.1597975641489029,0.0727216824889183
0.019000000000000017,0.047155775129795074,0.00030517578125,0.15595084428787231,0.07165887206792831
0.019499999999999962,0.04713818058371544,0.0,0.15352238714694977,0.0721265971660614
0.020000000000000018,0.047120705246925354,0.0,0.15074871480464935,0.07231912761926651
0.020499999999999963,0.047102972865104675,-0.00030517578125,0.14755547046661377,0.07069476693868637
0.02100000000000002,0.04708600789308548,0.0,0.14574693143367767,0.07188203930854797
0.021499999999999964,0.04706822708249092,0.00030517578125,0.14279820024967194,0.07144888490438461
0.02200000000000002,0.04705085977911949,0.00030517578125,0.14041045308113098,0.07087784260511398
0.022499999999999964,0.047033049166202545,0.00030517578125,0.13852053880691528,0.071071557700634
0.02300000000000002,0.047015637159347534,0.0006103515625,0.13622523844242096,0.07047081738710403
0.023499999999999965,0.046998195350170135,0.00091552734375,0.1341715008020401,0.06992942839860916
0.02400000000000002,0.046980541199445724,0.00030517578125,0.13268382847309113,0.07071726769208908
0.024499999999999966,0.04696366935968399,0.00030517578125,0.13056476414203644,0.07090121507644653
0.025000000000000022,0.046945784240961075,0.0,0.12881669402122498,0.07002655416727066
0.025499999999999967,0.046928517520427704,-0.00030517578125,0.1266660988330841,0.07103612273931503
0.026000000000000023,0.046910885721445084,0.001220703125,0.12441499531269073,0.06989728659391403
0.026499999999999968,0.04689367488026619,0.00030517578125,0.12234535068273544,0.07133141160011292
0.027000000000000024,0.04687587544322014,0.0,0.12038484215736389,0.06992259621620178
0.02749999999999997,0.04685864597558975,0.00091552734375,0.11855115741491318,0.07000920176506042
0.028000000000000025,0.046841904520988464,0.0006103515625,0.11688458174467087,0.07090991735458374
0.02849999999999997,0.04682387411594391,0.0006103515625,0.1144075021147728,0.06947188079357147
0.029000000000000026,0.046806685626506805,0.0,0.11300814896821976,0.06966672092676163
0.02949999999999997,0.046789225190877914,0.00030517578125,0.11096366494894028,0.06926019489765167
0.030000000000000027,0.04677195101976395,0.0,0.10934454947710037,0.06976640224456787
0.03049999999999997,0.04675441235303879,0.0006103515625,0.10684767365455627,0.06982186436653137
0.031000000000000028,0.046736862510442734,0.0006103515625,0.10559850186109543,0.07083743810653687
0.03149999999999997,0.0467195026576519,0.0006103515625,0.10393600165843964,0.06947382539510727
0.03200000000000003,0.046701639890670776,-0.00030517578125,0.10220352560281754,0.06962751597166061
0.03249999999999997,0.04668430984020233,0.0,0.10140864551067352,0.06987942010164261
0.03300000000000003,0.046666912734508514,-0.00030517578125,0.09937946498394012,0.06970137357711792
0.033499999999999974,0.04664982855319977,0.0006103515625,0.09853629022836685,0.06923726201057434
0.03400000000000003,0.04663185402750969,0.0,0.09649284183979034,0.0685528814792633
0.034499999999999975,0.046615105122327805,0.0006103515625,0.0955658033490181,0.06899933516979218
0.03500000000000003,0.046597644686698914,0.0,0.0943174734711647,0.06894459575414658
0.035499999999999976,0.04658007621765137,0.0006103515625,0.0929509773850441,0.06943599879741669
0.03600000000000003,0.046562619507312775,0.0,0.09223973751068115,0.06903266906738281
0.03649999999999998,0.04654520004987717,0.0006103515625,0.09020344167947769,0.0695124939084053
0.03700000000000003,0.04652818292379379,0.0006103515625,0.0886838287115097,0.07011732459068298
0.03749999999999998,0.046510301530361176,0.0006103515625,0.08754628151655197,0.06905308365821838
0.038000000000000034,0.046493370085954666,0.00030517578125,0.08650162070989609,0.06948519498109818
0.03849999999999998,0.04647597298026085,0.0006103515625,0.08537710458040237,0.06749039888381958
0.039000000000000035,0.04645845293998718,0.00030517578125,0.08385680615901947,0.06789476424455643
0.03949999999999998,0.046441223472356796,0.0,0.08256730437278748,0.06883355975151062
0.040000000000000036,0.04642387479543686,0.00091552734375,0.08174204081296921,0.06907806545495987
0.04049999999999998,0.046406339854002,0.0,0.07992523908615112,0.06884971261024475
0.041000000000000036,0.04638880863785744,0.0006103515625,0.07918746024370193,0.06893665343523026
0.04149999999999998,0.04637184739112854,0.0006103515625,0.07840360701084137,0.06923440098762512
0.04200000000000004,0.046354085206985474,-0.00030517578125,0.07695714384317398,0.06809040158987045
0.04249999999999998,0.04633641615509987,0.00030517578125,0.0762401670217514,0.06798137724399567
0.04300000000000004,0.04631936177611351,0.0006103515625,0.07461749017238617,0.06803007423877716
0.04349999999999998,0.04630204290151596,0.00030517578125,0.0739111602306366,0.06891895830631256
0.04400000000000004,0.04628438875079155,0.00030517578125,0.07249162346124649,0.0682627484202385
0.044499999999999984,0.0462670624256134,0.0006103515625,0.07180646061897278,0.06797372549772263
0.04500000000000004,0.046250034123659134,0.0006103515625,0.07053907215595245,0.06910550594329834
0.045499999999999985,0.04623210430145264,0.0,0.06952690333127975,0.06785117089748383
0.04600000000000004,0.0462152399122715,0.00030517578125,0.06838381290435791,0.0691678449511528
0.046499999999999986,0.04619776830077171,0.0006103515625,0.06772615760564804,0.06893270462751389
0.04700000000000004,0.0461801216006279,0.0006103515625,0.06635729968547821,0.0686233639717102
0.04749999999999999,0.0461629219353199,0.00030517578125,0.06558016687631607,0.06796249747276306
0.04800000000000004,0.046145737171173096,0.00030517578125,0.06502728164196014,0.06791117787361145
0.04849999999999999,0.04612836241722107,0.00030517578125,0.06354569643735886,0.0679396241903305
0.049000000000000044,0.0461108572781086,0.00030517578125,0.06265531480312347,0.06801680475473404
0.04949999999999999,0.04609331488609314,0.0006103515625,0.06152300164103508,0.06848879903554916
0.050000000000000044,0.04607592895627022,0.00030517578125,0.06064548343420029,0.06807705014944077
0.05049999999999999,0.04605868458747864,0.00091552734375,0.0601886548101902,0.06866566091775894
0.051000000000000045,0.046041060239076614,0.0,0.059031158685684204,0.06723234802484512
0.05149999999999999,0.04602373018860817,0.00030517578125,0.05825526639819145,0.06795360147953033
0.052000000000000046,0.04600615054368973,0.00030517578125,0.05694436654448509,0.06803570687770844
0.05249999999999999,0.04598882794380188,0.0006103515625,0.05660676583647728,0.06720738857984543
0.05300000000000005,0.045971646904945374,0.0006103515625,0.05581928789615631,0.06826785206794739
0.05349999999999999,0.045953720808029175,0.00030517578125,0.05497102066874504,0.06757937371730804
0.05400000000000005,0.045936811715364456,0.0,0.05404501035809517,0.06775680929422379
0.05449999999999999,0.045919012278318405,0.00030517578125,0.0532815121114254,0.06787867099046707
0.05500000000000005,0.04590180516242981,0.00091552734375,0.05271264165639877,0.06869450956583023
0.055499999999999994,0.045884035527706146,0.00030517578125,0.051915306597948074,0.06806948035955429
0.05600000000000005,0.04586702585220337,0.00030517578125,0.05157426744699478,0.06828998774290085
0.056499999999999995,0.04584968462586403,0.00030517578125,0.05077039450407028,0.06777177006006241
0.05700000000000005,0.04583229124546051,0.00030517578125,0.05031527578830719,0.0677405372262001
0.057499999999999996,0.0458148792386055,0.00030517578125,0.04916070029139519,0.06798480451107025
0.05800000000000005,0.04579731822013855,0.001220703125,0.048388753086328506,0.06720677763223648
0.058499999999999996,0.04578008875250816,0.0,0.04822191223502159,0.06795404106378555
0.05900000000000005,0.045762330293655396,0.0006103515625,0.046873632818460464,0.06764859706163406
0.0595,0.045745424926280975,0.00030517578125,0.046253785490989685,0.06839874386787415
0.06000000000000005,0.04572801664471626,0.0006103515625,0.04605130851268768,0.06837918609380722
0.0605,0.04571050778031349,0.0006103515625,0.04522775486111641,0.06853151321411133
0.061000000000000054,0.04569298401474953,0.0006103515625,0.04486057534813881,0.06712573766708374
0.0615,0.045675598084926605,0.00030517578125,0.044137269258499146,0.06811494380235672
0.062000000000000055,0.04565848782658577,0.0006103515625,0.0435573011636734,0.06755109131336212
0.0625,0.045640695840120316,0.0,0.04292025789618492,0.06725341081619263
0.06299999999999994,0.04562368616461754,0.00030517578125,0.041785091161727905,0.06801550090312958
0.0635,0.045606400817632675,0.00091552734375,0.04129772633314133,0.06751325726509094
0.06399999999999995,0.04558875039219856,-0.00030517578125,0.04074156656861305,0.06812356412410736
0.0645,0.04557134956121445,0.00030517578125,0.04019824415445328,0.06806175410747528
0.06499999999999995,0.04555400088429451,0.00030517578125,0.03983486816287041,0.06841869652271271
0.0655,0.04553664103150368,0.0006103515625,0.039169829338788986,0.06794669479131699
0.06599999999999995,0.04551881179213524,0.0006103515625,0.038797155022621155,0.06718913465738297
0.0665,0.04550160467624664,0.0006103515625,0.03812168538570404,0.06758519262075424
0.06699999999999995,0.04548418149352074,0.00030517578125,0.0373079888522625,0.06727417558431625
0.0675,0.045467179268598557,0.0006103515625,0.0366588793694973,0.06716684252023697
0.06799999999999995,0.04544958472251892,0.00030517578125,0.0364953950047493,0.06668730080127716
0.0685,0.045432187616825104,0.0,0.03600196912884712,0.06786547601222992
0.06899999999999995,0.045414626598358154,0.0,0.0354648195207119,0.06731908768415451
0.0695,0.045397210866212845,0.0006103515625,0.03461017832159996,0.06623905897140503
0.06999999999999995,0.04538007080554962,0.0006103515625,0.03427783399820328,0.06695556640625
0.07050000000000001,0.045362502336502075,0.0006103515625,0.03406170383095741,0.06672830134630203
0.07099999999999995,0.04534515365958214,0.00030517578125,0.03314048424363136,0.06673295795917511
0.07150000000000001,0.045327868312597275,-0.00030517578125,0.032774221152067184,0.06714102625846863
0.07199999999999995,0.04531075060367584,0.00091552734375,0.03214621916413307,0.06816662847995758
0.07250000000000001,0.04529276490211487,0.0,0.031716860830783844,0.06734409928321838
0.07299999999999995,0.045275285840034485,-0.00030517578125,0.03137468919157982,0.06673461943864822
0.07350000000000001,0.04525812715291977,0.00091552734375,0.030839992687106133,0.0667005330324173
0.07399999999999995,0.04524044319987297,0.0,0.03027951531112194,0.06777416169643402
0.07450000000000001,0.045223161578178406,0.0,0.03006560727953911,0.06738539785146713
0.07499999999999996,0.04520556703209877,0.00030517578125,0.029358064755797386,0.06729309260845184
0.07550000000000001,0.045188307762145996,0.0006103515625,0.0289746206253767,0.06697280704975128
0.07599999999999996,0.04517076909542084,0.0006103515625,0.02845248393714428,0.06677424162626266
0.07650000000000001,0.045153360813856125,0.0,0.02819863334298134,0.06800373643636703
0.07699999999999996,0.04513593018054962,0.0,0.027881955727934837,0.06777119636535645
0.07750000000000001,0.04511840641498566,0.001220703125,0.027525214478373528,0.06714498996734619
0.07799999999999996,0.04510142281651497,0.0,0.02691630646586418,0.0670732632279396
0.07850000000000001,0.04508400335907936,0.0006103515625,0.02707749418914318,0.06693661212921143
0.07899999999999996,0.04506675526499748,0.0006103515625,0.026174094527959824,0.06737323850393295
0.07950000000000002,0.045049168169498444,0.0,0.026136446744203568,0.06654113531112671
0.07999999999999996,0.045032043009996414,0.0006103515625,0.02535698004066944,0.06666626781225204
0.08050000000000002,0.04501449689269066,0.00030517578125,0.025317173451185226,0.06584002077579498
0.08099999999999996,0.04499686881899834,0.0,0.02454536221921444,0.0674213245511055
0.08150000000000002,0.04497982934117317,0.00030517578125,0.024159543216228485,0.06697570532560349
0.08199999999999996,0.04496235400438309,0.0,0.0241802129894495,0.06672590970993042
0.08250000000000002,0.04494531452655792,0.0,0.02346833050251007,0.06761360168457031
0.08299999999999996,0.0449276901781559,0.0006103515625,0.02284918911755085,0.06687429547309875
0.08350000000000002,0.04491056874394417,0.00030517578125,0.022523360326886177,0.067372627556324
0.08399999999999996,0.04489291459321976,0.001220703125,0.022369083017110825,0.06666024774312973
0.08450000000000002,0.04487597942352295,0.00030517578125,0.021871298551559448,0.06662724167108536
0.08499999999999996,0.04485861212015152,0.00030517578125,0.021826986223459244,0.06681139022111893
0.08550000000000002,0.04484116658568382,0.00030517578125,0.021180851384997368,0.06689316779375076
0.08599999999999997,0.04482356831431389,0.00091552734375,0.02113477885723114,0.06700878590345383
0.08650000000000002,0.04480608180165291,0.00030517578125,0.02052655816078186,0.06591878086328506
0.08699999999999997,0.04478907957673073,0.00091552734375,0.020314959809184074,0.06708908081054688
0.08750000000000002,0.044771142303943634,0.00030517578125,0.019616758450865746,0.06632079184055328
0.08799999999999997,0.04475392773747444,0.0006103515625,0.01933506689965725,0.06615196168422699
0.08850000000000002,0.0447365939617157,0.00030517578125,0.01950317993760109,0.06564799696207047
0.08899999999999997,0.04471902921795845,-0.00030517578125,0.01887807436287403,0.06601204723119736
0.08950000000000002,0.044701848179101944,0.0006103515625,0.018412945792078972,0.06604479253292084
0.08999999999999997,0.04468425735831261,0.0006103515625,0.017984895035624504,0.0663968175649643
0.09050000000000002,0.04466729983687401,0.00030517578125,0.017981743440032005,0.06689459830522537
0.09099999999999997,0.044649552553892136,0.00091552734375,0.01744016818702221,0.06579653918743134
0.09150000000000003,0.04463253542780876,0.00030517578125,0.017522161826491356,0.06629012525081635
0.09199999999999997,0.04461490735411644,0.0,0.017219049856066704,0.06717861443758011
0.09250000000000003,0.04459737241268158,0.00030517578125,0.01668892614543438,0.06770540773868561
0.09299999999999997,0.04458022862672806,0.00091552734375,0.01655079610645771,0.066261887550354
0.09350000000000003,0.04456275701522827,0.00030517578125,0.016148746013641357,0.0662054494023323
0.09399999999999997,0.04454543814063072,0.00030517578125,0.015808401629328728,0.06614867597818375
0.09450000000000003,0.044527817517519,0.0,0.015427556820213795,0.06594149768352509
0.09499999999999997,0.044510602951049805,-0.00030517578125,0.015029821544885635,0.06619849056005478
0.09550000000000003,0.044493190944194794,0.0,0.01472741924226284,0.06600408256053925
0.09599999999999997,0.044476091861724854,0.00030517578125,0.014651845209300518,0.06698805093765259
0.09650000000000003,0.04445803537964821,0.00091552734375,0.014143947511911392,0.06658952683210373
0.09699999999999998,0.04444107040762901,0.0006103515625,0.014179915189743042,0.06605563312768936
0.09750000000000003,0.044423509389162064,0.00030517578125,0.013863748870790005,0.0659770667552948
0.09799999999999998,0.04440592974424362,0.00030517578125,0.013939915224909782,0.06616587936878204
0.09850000000000003,0.04438893869519234,0.0006103515625,0.013218587264418602,0.06633660197257996
0.09899999999999998,0.0443713441491127,0.0,0.013289008289575577,0.06535117328166962
0.09950000000000003,0.044353656470775604,0.00091552734375,0.012717866338789463,0.06571625918149948
0.09999999999999998,0.044336605817079544,0.00091552734375,0.012600337155163288,0.06658897548913956
0.10050000000000003,0.04431930556893349,0.00030517578125,0.01213574968278408,0.06650441139936447
0.10099999999999998,0.0443015955388546,0.0006103515625,0.011796176433563232,0.06571967899799347
0.10150000000000003,0.044284287840127945,0.0,0.012143311090767384,0.0670718178153038
0.10199999999999998,0.04426676779985428,0.0006103515625,0.011413339525461197,0.06620689481496811
0.10250000000000004,0.04424956440925598,0.00030517578125,0.01145617663860321,0.06632771342992783
0.10299999999999998,0.044232215732336044,0.00030517578125,0.010827789083123207,0.06597347557544708
0.10350000000000004,0.044214989989995956,0.00030517578125,0.010703928768634796,0.0658659115433693
0.10399999999999998,0.04419771954417229,0.0006103515625,0.010582956485450268,0.06543264538049698
0.10450000000000004,0.044179897755384445,0.00030517578125,0.010348491370677948,0.06570733338594437
0.10499999999999998,0.044162821024656296,0.0006103515625,0.0100150341168046,0.0664108619093895
0.10550000000000004,0.04414519667625427,0.00030517578125,0.010023037903010845,0.06587949395179749
