Time [s],Lmtc [m],STIM [ ],Fsee [N],Gamma [ ],Lcerel [ ],q [ ]
0.0,0.017309415649724245,1.0,12.114860743050313,0.787895916150041,0.8186368230054273,0.9670803112514195
0.0005,0.017264415649724245,0.0,11.827892130637089,0.7705003001905005,0.8182970960882264,0.9646777497530393
0.001,0.017219415649724245,0.0,11.54817105413143,0.7534887593394669,0.8179163482249933,0.9621001881060242
0.0015,0.017174415649724245,0.0,11.275504781366331,0.7368528137639262,0.8174951811015988,0.9593355866110381
0.002,0.017129415649724245,0.0,11.009701258498728,0.7205841709878672,0.8170342385721172,0.9563712324527941
0.0025,0.017084415649724245,0.0,10.750569217026845,0.7046747211242823,0.8165342069843208,0.9531937298613441
0.003,0.017039415649724245,0.0,10.497918290414452,0.6891165336207504,0.8159958153326312,0.9497889958055763
0.0035,0.016994415649724245,0.0,10.25155911510537,0.6739018529838909,0.8154198355156171,0.9461422619295529
0.004,0.016949415649724246,0.0,10.011303436773646,0.6590230950288501,0.8148070824697764,0.9422380841629102
0.0045000000000000005,0.016904415649724246,0.0,9.776964204754591,0.644472842932448,0.814158414373126,0.9380603612258583
0.005,0.016859415649724246,0.0,9.548355674255697,0.63024384371354,0.8134747326972166,0.9335923635660439
0.0055,0.016814415649724246,0.0,9.325293494825278,0.6163290044266381,0.8127569823580713,0.9288167741387532
0.006,0.016769415649724246,0.0,9.10759480959095,0.6027213888262382,0.8120061516829714,0.9237157427900967
0.006500000000000001,0.016724415649724246,0.0,8.895078448653166,0.5894142154218798,0.8112232711604525,0.9182709560154095
0.007,0.016679415649724246,0.0,8.687564966499647,0.5764008532615394,0.8104094139858918,0.9124637233868335
0.0075,0.016634415649724246,0.0,8.484876580277227,0.5636748160587851,0.8095656978487149,0.9062750821244223
0.008,0.016589415649724246,0.0,8.286837340909779,0.5512297601768006,0.8086932838488993,0.8996859223387424
0.0085,0.016544415649724246,0.0,8.093273214285269,0.5390594812565221,0.8077933764601177,0.892677133657921
0.009000000000000001,0.016499415649724243,0.0,7.9040121632244515,0.5271579109302644,0.8068672234573215,0.8852297746284757
0.0095,0.016454415649724243,0.0,7.718884230703749,0.5155191136209608,0.8059161158086658,0.8773252657744152
0.01,0.016409415649724243,0.0,7.537721624827553,0.5041372834270097,0.8049413875317907,0.8689456067692003
0.0105,0.016364415649724243,0.0,7.3603588060788345,0.4930067410927328,0.8039444155144474,0.8600736176301091
0.011,0.016319415649724243,0.0,7.186338885864917,0.4821219362544631,0.8029306295557963,0.8506954408490135
0.011111111111111112,0.016309415649724244,0.0,7.147986140038704,0.479735915613306,0.8027048559980074,0.848542115518025
0.011611111111111112,0.016311784070776877,0.0,7.234784787788052,0.4691441176035105,0.8016977214853669,0.8385409674467366
0.012111111111111112,0.016314152491829506,0.0,7.31897537438568,0.4587861758536969,0.8007329584429934,0.8280405211180565
0.012611111111111113,0.01631652091288214,0.0,7.399205075555881,0.4486569249822271,0.7998280417540522,0.8170463234567887
0.013111111111111113,0.016318889333934772,0.0,7.476060912109334,0.4387513166069062,0.7989741414313227,0.8055503463291177
0.013611111111111114,0.0163212577549874,0.0,7.549454931120216,0.4290644151461919,0.798171644333846,0.7935526111329296
0.014111111111111114,0.016323626176040034,0.0,7.6193043177657085,0.41959139874516743,0.7974209007079026,0.7810559031945665
0.014611111111111115,0.016325994597092663,0.0,7.685524932377376,0.410327532776913,0.7967223112969868,0.7680659897200446
0.015111111111111115,0.016328363018145296,0.0,7.748030344842726,0.40126819380434203,0.7960763399118167,0.7545918286565737
0.015611111111111116,0.01633073143919793,0.0,7.806732018246221,0.39240887074300357,0.7954835108621555,0.7406457116935358
0.016111111111111118,0.01633309986025056,0.0,7.861544171572805,0.3837451308498338,0.7949443456107147,0.7262432583767027
0.016611111111111118,0.01633546828130319,0.0,7.912378962409745,0.3752726541360463,0.7944594268673103,0.7114035710967472
0.01711111111111112,0.016337836702355824,0.0,7.959146141238659,0.3669872360225818,0.7940294035346528,0.6961492584403168
0.01761111111111112,0.016340205123408454,0.0,8.001754266025,0.35888477928643747,0.793654975643168,0.6805063685771824
0.01811111111111112,0.016342573544461086,0.0,8.040120639056223,0.35096122932524276,0.7933367671873551,0.664504035975444
0.01861111111111112,0.01634494196551372,0.0,8.074165953814212,0.34321261062966496,0.7930753977707026,0.6481744312344144
0.01911111111111112,0.01634731038656635,0.0,8.103808225951767,0.3356350673931218,0.7928715623777579,0.6315527051544954
0.01961111111111112,0.01634967880761898,0.0,8.128966857917337,0.3282248375124705,0.7927259803021376,0.6146766228389805
0.02011111111111112,0.01635204722867161,0.0,8.149568757730544,0.32097823298104805,0.7926393184597577,0.5975861160756688
0.02061111111111112,0.016354415649724244,0.0,8.165607036516914,0.31389162409729615,0.7926114417512,0.5803220684611963
0.021111111111111122,0.016356784070776877,0.0,8.178038408627648,0.30696147937267426,0.7926299305937676,0.5629136107773376
0.021611111111111123,0.016359152491829506,0.0,8.187670703210701,0.3001843453239158,0.7926843447948483,0.5453926288845725
0.022111111111111123,0.01636152091288214,0.0,8.193800050170369,0.29355684255424935,0.7927836217325909,0.527812649493884
0.022611111111111123,0.01636388933393477,0.0,8.195544473573413,0.28707566727327816,0.7929389881066304,0.5102302888386437
0.023111111111111124,0.0163662577549874,0.0,8.191710726482489,0.28073758720190795,0.7931656864147792,0.4927064377812583
0.023611111111111124,0.016368626176040034,0.0,8.180673455411096,0.2745394435325406,0.7934845671085332,0.4753072017197475
0.024111111111111125,0.016370994597092663,0.0,8.16009106186394,0.2684781456288842,0.7939258204481383,0.45810695653824796
0.024611111111111125,0.016373363018145296,0.0,8.12673658448629,0.2625506768372381,0.7945313415782527,0.4411896382613587
0.025111111111111126,0.01637573143919793,0.0,8.076037479017783,0.25675408002416955,0.7953610329283338,0.4246537941833166
0.025611111111111126,0.01637809986025056,0.0,8.002454230238262,0.25108546539291915,0.7964886788257322,0.40860605277387496
0.026111111111111127,0.01638046828130319,0.0,7.899795185700379,0.24554200743458238,0.7979990261540744,0.3931559208888146
0.026611111111111127,0.016382836702355824,0.0,7.765235828282347,0.24012094275189508,0.7999366727334901,0.3783615925690736
0.027111111111111127,0.016385205123408454,0.0,7.601429822854804,0.23481956894994957,0.8022775625786371,0.3642038360417143
0.027611111111111128,0.016387573544461086,0.0,7.415484390183118,0.22963524338344155,0.8049392687414676,0.3506022525607083
0.02811111111111113,0.01638994196551372,0.0,7.215449387695415,0.2245653817727945,0.8078242270628287,0.3374634316765352
0.02861111111111113,0.01639231038656635,0.0,7.007677873402364,0.2196074568818802,0.8108539291653949,0.3247161270838275
0.02911111111111113,0.01639467880761898,0.0,6.7965120927146,0.21475899772093116,0.813973886880716,0.31231507031036176
0.02961111111111113,0.01639704722867161,0.0,6.584671564185256,0.210017587978807,0.8171495438502256,0.30023552866206915
0.03011111111111113,0.016399415649724244,0.0,6.37381852521544,0.20538086326479113,0.8203595083819855,0.28846563233282474
0.03061111111111113,0.016401784070776877,0.0,6.164913051393393,0.2008465120075776,0.8235913429122957,0.277001564578459
0.03111111111111113,0.016404152491829506,0.0,5.958612831958126,0.19641213870958074,0.826836306021324,0.2658418544454289
0.03161111111111113,0.01640652091288214,0.0,5.7553358036060915,0.1920756694789751,0.8300887084935736,0.25498780843716623
0.03211111111111113,0.01640888933393477,0.0,5.555455897650207,0.18783494440047432,0.8333431406696467,0.24443973925173565
0.03261111111111113,0.0164112577549874,0.0,5.359261043887507,0.1836878850856916,0.8365951602899913,0.23419806234438864
0.03311111111111113,0.016413626176040034,0.0,5.166953009395686,0.1796324065470685,0.8398413844428313,0.2242630437590347
0.03361111111111113,0.016415994597092667,0.0,4.978713693912594,0.17566647413171393,0.8430785024011931,0.21463419910094747
0.034111111111111134,0.016418363018145296,0.0,4.79470267241437,0.17178810809852768,0.8463033251436819,0.2053103957377115
0.034611111111111134,0.01642073143919793,0.0,4.615051528581655,0.1679953728347673,0.8495128959030678,0.19628994219397605
0.035111111111111135,0.01642309986025056,0.0,4.439869106686201,0.16428637144768396,0.8527044244863594,0.1875705632991565
0.035611111111111135,0.01642546828130319,0.0,4.269238023795938,0.1606592759050093,0.855875368813099,0.1791495798414982
0.036111111111111135,0.016427836702355824,0.0,4.103220308230918,0.15711225093751444,0.8590233615256483,0.17102367455933304
0.036611111111111136,0.016430205123408453,0.0,3.941851414779071,0.1536435592621154,0.8621463418520292,0.16318931033085005
0.037111111111111136,0.016432573544461086,0.0,3.7851490058561645,0.15025144351714637,0.8652424258064652,0.15564234552280531
0.03761111111111114,0.01643494196551372,0.0,3.6331082181994976,0.14693423130975014,0.8683100192386036,0.1483784275607746
0.03811111111111114,0.01643731038656635,0.0,3.4857089637702914,0.1436902582181805,0.8713477088459023,0.14139274770922708
0.03861111111111114,0.01643967880761898,0.0,3.3429152436023193,0.14051789333210077,0.8743542985066027,0.1346801683986418
0.03911111111111114,0.01644204722867161,0.0,3.204680310052985,0.13741556223944937,0.8773287301942151,0.12823527616975822
0.03961111111111114,0.016444415649724244,0.0,3.070948344393478,0.13438172316070146,0.8802700667634881,0.12205234883903397
0.04011111111111114,0.016446784070776876,0.0,2.9416559844389223,0.131414874555271,0.88317747523999,0.11612540684402987
0.04061111111111114,0.016449152491829506,0.0,2.8167380624894207,0.12851352054514392,0.8860501156564587,0.11044812421266449
0.04111111111111114,0.01645152091288214,0.0,2.696123983309043,0.1256762147720163,0.888887223404942,0.10501401805472466
0.04161111111111114,0.01645388933393477,0.0,2.5797422553415426,0.12290155467854759,0.8916880168878336,0.09981643463123219
0.04211111111111114,0.0164562577549874,0.0,2.4675203288710015,0.12018815643855098,0.8944517017668299,0.09484853731099072
0.04261111111111114,0.016458626176040034,0.0,2.3593839002300974,0.11753466992972204,0.897177488651927,0.09010338894084588
0.04311111111111114,0.016460994597092667,0.0,2.2552582021160115,0.1149397742741279,0.8998645649247545,0.08557396916201915
0.04361111111111114,0.016463363018145296,0.0,2.15506695779581,0.11240217440643209,0.902512120958888,0.08125321180676691
0.04411111111111114,0.01646573143919793,0.0,2.058732191215226,0.10992060475167227,0.9051193583363913,0.07713404638124904
0.04461111111111114,0.016468099860250558,0.0,1.9661742665115332,0.10749382372978443,0.9076854932690775,0.07320941594362501
0.04511111111111114,0.01647046828130319,0.0,1.8773109760908444,0.10512061840957414,0.9102097859135999,0.06947231925538036
0.045611111111111144,0.016472836702355824,0.0,1.7920580153953762,0.10279981162776786,0.9126915358734139,0.06591584222473215
0.046111111111111144,0.016475205123408453,0.0,1.7103289396246284,0.10053024444170379,0.9151300913293298,0.06253314577904333
0.046611111111111145,0.016477573544461086,0.0,1.6320342452596353,0.09831077921498113,0.9175248843264933,0.05931749701552581
0.047111111111111145,0.01647994196551372,0.0,1.5570832621008734,0.0961403192504406,0.9198753883500149,0.05626230494035588
0.047611111111111146,0.01648231038656635,0.0,1.4853834844411191,0.09401777950502216,0.922181146158152,0.05336108886213405
0.048111111111111146,0.01648467880761898,0.0,1.4168394840705105,0.0919420760406949,0.9244418141804028,0.05060748390743785
0.04861111111111115,0.016487047228671614,0.0,1.3513557108682006,0.08991219307676537,0.9266570903536825,0.047995337853517
0.04911111111111115,0.016489415649724243,0.0,1.2888361482232762,0.08792713809195064,0.928826732077524,0.04551864791343909
0.04961111111111115,0.016491784070776876,0.0,1.229183068699091,0.08598588539590686,0.9309506061208428,0.0431714981011068
0.05011111111111115,0.016494152491829506,0.0,1.1722974900898087,0.08408750285118316,0.9330286877131153,0.040948242500326935
0.05061111111111115,0.01649652091288214,0.0,1.1180834014284111,0.08223097831549676,0.9350609280286784,0.038843250613067114
0.05111111111111115,0.01649888933393477,0.0,1.0664446195568298,0.08041547927301632,0.9370473628819621,0.03685127092086285
0.05161111111111115,0.0165012577549874,0.0,1.017285002149951,0.07864007415097897,0.9389881154034018,0.03496706703936111
0.05211111111111115,0.016503626176040034,0.0,0.9705050340353074,0.07690364370276903,0.9408835330501235,0.03318536045184796
0.05261111111111115,0.016505994597092667,0.0,0.9260141616116965,0.07520575281524003,0.9427337442456597,0.03150177573712159
0.05311111111111115,0.016508363018145296,0.0,0.883718843787449,0.0735451657553458,0.94453909547855,0.02991118952242549
0.05361111111111115,0.01651073143919793,0.0,0.8435329754027305,0.07192143190131568,0.9462997606772116,0.028409466070417073
0.05411111111111115,0.01651309986025056,0.0,0.8053641517423251,0.07033337737875783,0.9480162789012835,0.02699188569417449
0.05461111111111115,0.01651546828130319,0.0,0.7691326097945684,0.06878074934088745,0.9496888050528915,0.025654758157056375
0.05511111111111115,0.016517836702355824,0.0,0.7347508663810574,0.06726267207419784,0.9513179312111971,0.024393936319983784
0.05561111111111115,0.016520205123408453,0.0,0.7021346150824042,0.06577809524270936,0.9529042596719204,0.023205278444195735
0.05611111111111115,0.016522573544461086,0.0,0.671203243185044,0.06432606014238434,0.9544483767589894,0.022084898920933717
0.056611111111111154,0.01652494196551372,0.0,0.6418791808473298,0.06290605731933654,0.9559508763928933,0.021029440000224896
0.057111111111111154,0.01652731038656635,0.0,0.6140880505884222,0.06151741052556577,0.9574123496737299,0.02003552267049097
0.057611111111111155,0.01652967880761898,0.0,0.5877580520795243,0.0601594038769917,0.9588334095702845,0.01909987029054079
0.058111111111111155,0.016532047228671614,0.0,0.5628161466053773,0.05883139104935554,0.9602148751030315,0.018219401918741704
0.058611111111111155,0.016534415649724243,0.0,0.5391936533776872,0.057532707091900344,0.9615575101166076,0.017391143404967255
0.059111111111111156,0.016536784070776876,0.0,0.5168256039139575,0.056262680627561956,0.9628620441482153,0.016612239360622637
0.059611111111111156,0.016539152491829506,0.0,0.4956508366194172,0.05502070244863158,0.964129158185782,0.01587999544872846
0.06011111111111116,0.01654152091288214,0.0,0.47561075344476217,0.05380615447278544,0.9653595401475968,0.015191828923547451
0.06061111111111116,0.01654388933393477,0.0,0.4566488426919405,0.05261839263361258,0.966553906339328,0.014545258871026027
0.06111111111111116,0.0165462577549874,0.0,0.43870643334724196,0.05145662204671936,0.967713233801525,0.013937846992320927
0.06161111111111116,0.016548626176040034,0.0,0.4217394426420735,0.05032060597031067,0.9688378369125902,0.01336754968178467
0.06211111111111116,0.016550994597092666,0.0,0.4056923768965125,0.04920957685013942,0.9699287894108728,0.012832157652480917
0.06261111111111116,0.016553363018145296,0.0,0.3905223394412076,0.0481231814672572,0.9709865887502249,0.012329759162642168
0.06311111111111116,0.01655573143919793,0.0,0.37617814552449413,0.047060677364404176,0.9720123402063418,0.01185836235487431
0.06361111111111116,0.01655809986025056,0.0,0.3626219667464594,0.04602176380021136,0.9730064937306341,0.01141625973681968
0.06411111111111116,0.01656046828130319,0.0,0.34981545797952873,0.04500607876805865,0.9739696350287852,0.011001795301919604
0.06461111111111116,0.016562836702355824,0.0,0.3377155482136248,0.04401297795415611,0.9749027594155929,0.010613284611848439
0.06511111111111116,0.016565205123408453,0.0,0.32628190273270724,0.04304183338579451,0.9758068248685837,0.010249140287760286
0.06561111111111116,0.016567573544461086,0.0,0.31547619191873183,0.042092017090264625,0.976682789365284,0.009907862077644214
0.06611111111111116,0.01656994196551372,0.0,0.30526261580047837,0.04116294811018495,0.9775315693617457,0.009588049219808329
0.06661111111111116,0.016572310386566348,0.0,0.2956114604548029,0.04025437495677817,0.9783537903446102,0.009288484765417696
0.06711111111111116,0.01657467880761898,0.0,0.2864923505032428,0.03936588620160794,0.9791502190508466,0.009007958247397458
0.06761111111111116,0.016577047228671614,0.0,0.27787572494886537,0.03849701903608618,0.979921667593682,0.008745307044156972
0.06811111111111116,0.016579415649724243,0.0,0.2697334565072125,0.03764731065162481,0.9806689480863441,0.008499431879941382
0.06861111111111116,0.016581784070776876,0.0,0.2620396061464679,0.03681632574924727,0.9813928133609736,0.008269301171074132
0.06911111111111116,0.01658415249182951,0.0,0.2547719903018224,0.03600371365441758,0.9820938338905832,0.008053960801117236
0.06961111111111117,0.01658652091288214,0.0,0.24790775130655157,0.035209065223608844,0.9827727061443415,0.007852494218826988
0.07011111111111117,0.01658888933393477,0.0,0.2414249356686121,0.03443196516983597,0.9834301398300946,0.007664034837547332
0.07061111111111117,0.0165912577549874,0.0,0.2353026241880226,0.03367199820611389,0.9840668446556886,0.007487765353436265
0.07111111111111117,0.016593626176040033,0.0,0.2295210506643845,0.03292878979563795,0.9846835169927455,0.007322924531272484
0.07161111111111117,0.016595994597092666,0.0,0.22406158563060563,0.03220201752540139,0.9852808361544431,0.0071688053809960475
0.07211111111111117,0.016598363018145296,0.0,0.2189062428007527,0.031491308396882585,0.9858594980089731,0.007024729901634023
0.07261111111111117,0.01660073143919793,0.0,0.21403784780881646,0.03079628841309263,0.9864201987512926,0.006890059248948329
0.07311111111111117,0.01660309986025056,0.0,0.2094399962811748,0.03011658367542903,0.9869636344717534,0.006764192091164456
0.07361111111111117,0.01660546828130319,0.0,0.2050976839750197,0.029451871771507356,0.9874904465196872,0.0066465715489630196
0.07411111111111117,0.016607836702355824,0.0,0.20099680635815725,0.02880184933425269,0.98800125599513,0.006536676146942414
0.07461111111111117,0.016610205123408453,0.0,0.19712346878520798,0.02816618250679507,0.9884967164153847,0.006434009827509519
0.07511111111111117,0.016612573544461086,0.0,0.1934643607398899,0.027544537510193996,0.9889774810685565,0.006338106115241551
0.07561111111111117,0.01661494196551372,0.0,0.19000793000810282,0.02693661521867205,0.9894441013247488,0.006248531175753996
0.07611111111111117,0.016617310386566348,0.0,0.18674351838921027,0.02634212878469331,0.9898970924426755,0.00616487854512872
0.07661111111111117,0.01661967880761898,0.0,0.18366019726735414,0.02576077116374288,0.9903370290821436,0.0060867635479398274
0.07711111111111117,0.016622047228671614,0.0,0.18074746192437688,0.025192235400568835,0.9907644856930647,0.006013824928248135
0.07761111111111117,0.016624415649724243,0.0,0.1779961278477725,0.024636248714798154,0.991179956365691,0.005945727454988472
0.07811111111111117,0.016626784070776876,0.0,0.17539766296016496,0.024092549912905818,0.9915839079446715,0.005882157433144096
0.07861111111111117,0.01662915249182951,0.0,0.17294332176075103,0.023560858196255016,0.9919768533746033,0.005822818133507453
0.07911111111111117,0.01663152091288214,0.0,0.1706246660422533,0.023040892860579504,0.9923593053737855,0.005767431177362521
0.07961111111111117,0.01663388933393477,0.0,0.16843438747807665,0.02253240466023521,0.992731701223794,0.005715738479101635
0.08011111111111117,0.0166362577549874,0.0,0.16636569381451877,0.022035154544804036,0.9930944537583941,0.005667498713004781
0.08061111111111117,0.016638626176040033,0.0,0.1644115421067843,0.021548885699144444,0.9934480184105636,0.0056224838448507295
0.08111111111111118,0.016640994597092666,0.0,0.16256511012407873,0.021073341421343338,0.9937928503008968,0.005580480130635657
0.08161111111111118,0.016643363018145296,0.0,0.16082075875388105,0.020608297471141363,0.9941293149923591,0.005541289817228796
