time [s],Lmtc [m],STIM [ ],Fsee [N]
0.0,0.0480145066976547,0.00091552734375,0.2215254703560082
0.0004999999999999,0.0480148568749427,0.0,0.22188769365322852
0.001,0.0480148792266845,0.0,0.22189793308221697
0.0014999999999999,0.0480145961046218,0.00030517578125,0.22158988679871536
0.002,0.0480150543153286,0.0006103515625,0.2220625687119756
0.0024999999999999,0.0480146072804927,0.0006103515625,0.22157940009753718
0.003,0.0480146445333957,0.00030517578125,0.2216148232339689
0.0034999999999999,0.0480148531496524,0.00030517578125,0.22182753087414608
0.004,0.0480146445333957,0.0006103515625,0.22159974404928315
0.0044999999999999,0.0480149015784263,0.0006103515625,0.2218630680677866
0.005,0.0480149798095226,0.0006103515625,0.22193243237915067
0.0054999999999999,0.0480147451162338,0.0006103515625,0.22167432463652295
0.006,0.0480147562921047,0.00030517578125,0.22167990287093123
0.0064999999999999,0.0480140969157218,0.0006103515625,0.220994017119743
0.007,0.0480129048228263,0.00091552734375,0.21980503112905722
0.0074999999999999,0.0480107143521308,0.00030517578125,0.21768223326431105
0.008,0.0480062067508697,0.00030517578125,0.2133699958786911
0.0084999999999999,0.0479998290538787,0.0006103515625,0.207551939508745
0.009,0.0479915402829647,0.00091552734375,0.20040546493182052
0.0094999999999999,0.0479811131954193,0.0006103515625,0.19201617468161286
0.01,0.0479691959917545,0.00030517578125,0.1833506722234396
0.0104999999999999,0.0479560531675815,0.00030517578125,0.17498578493374564
0.011,0.0479420386254787,0.0,0.16749256506030874
0.0114999999999999,0.0479269735515117,0.0006103515625,0.16090664773985297
0.012,0.0479115769267082,0.00030517578125,0.15581711773844859
0.0124999999999999,0.0478958338499069,0.00030517578125,0.1519033222752917
0.013,0.0478794053196907,0.0006103515625,0.1485387087459215
0.0134999999999999,0.0478639081120491,0.00030517578125,0.1465644153008858
0.014,0.0478478856384754,0.00030517578125,0.14439722013225914
0.0144999999999999,0.0478321090340614,0.0006103515625,0.14260141418424518
0.015,0.0478166975080966,0.00030517578125,0.1410967519989063
0.0154999999999999,0.0478007346391677,0.0006103515625,0.1391590764640352
0.016,0.0477853566408157,0.0006103515625,0.137712545317735
0.0164999999999999,0.0477702058851718,0.00030517578125,0.13632898139275398
0.017,0.0477546155452728,0.0,0.13455135713711322
0.0174999999999999,0.0477396212518215,0.0006103515625,0.13322775796165834
0.018,0.0477242693305015,0.0006103515625,0.13155596214807083
0.0184999999999999,0.0477093793451786,0.00030517578125,0.13021825432226444
0.019,0.0476942062377929,0.00030517578125,0.1286116958298044
0.0194999999999999,0.0476785711944103,0.00030517578125,0.12672969339933304
0.02,0.0476636812090873,0.0,0.12545835188756096
0.0204999999999999,0.0476484298706054,0.00030517578125,0.12385726924356157
0.021,0.0476328693330287,0.00030517578125,0.12208756736886614
0.0214999999999999,0.0476179234683513,0.0006103515625,0.12080126190543602
0.022,0.0476025119423866,0.0,0.11913156135889791
0.0224999999999999,0.0475874096155166,0.00030517578125,0.11771876571291919
0.023,0.0475721172988414,0.0006103515625,0.11616095828316446
0.0234999999999999,0.0475563593208789,0.00030517578125,0.11433590794053239
0.024,0.0475417450070381,0.0006103515625,0.11334207359366086
0.0244999999999999,0.0475266575813293,0.0006103515625,0.11188364911933651
0.025,0.0475112237036228,0.00030517578125,0.11021604249316175
0.0254999999999999,0.0474962778389453,0.0006103515625,0.10893396470760089
0.026,0.0474805869162082,0.0006103515625,0.10714371520367298
0.0264999999999999,0.0474655888974666,0.00030517578125,0.10589736528877247
0.027,0.0474504269659519,0.00030517578125,0.10448878332352612
0.0274999999999999,0.0474349409341812,0.0006103515625,0.10288483183290155
0.028,0.0474199838936328,0.00030517578125,0.10166473654627568
0.0284999999999999,0.0474048256874084,0.0006103515625,0.10026671610854099
0.029,0.0473894365131855,0.00030517578125,0.09873707473747509
0.0294999999999999,0.0473745763301849,0.00030517578125,0.09757337907776462
0.03,0.047358963638544,0.0,0.09590182187975461
0.0304999999999999,0.0473440773785114,0.0006103515625,0.09475417137047808
0.031,0.0473289415240287,0.00091552734375,0.09339635324950599
0.0314999999999999,0.0473133660852909,0.0006103515625,0.09179398657982861
0.032,0.0472985357046127,0.00030517578125,0.09070731069884118
0.0324999999999999,0.0472830757498741,0.0,0.08918919462337316
0.033,0.0472678504884243,0.0006103515625,0.08787009501461089
0.0334999999999999,0.047252919524908,0.0006103515625,0.08672004806360505
0.034,0.0472374856472015,0.0006103515625,0.08524289292944048
0.0344999999999999,0.0472225546836853,0.0,0.08410400174091336
0.035,0.0472073331475257,0.00030517578125,0.08276394762985768
0.0354999999999999,0.047191847115755,0.00091552734375,0.08130112760325635
0.036,0.0471771471202373,0.0,0.08033052031716047
0.0364999999999999,0.0471613593399524,0.0006103515625,0.07869052254574758
0.037,0.0471463687717914,0.00030517578125,0.07760111504764891
0.0374999999999999,0.0471312068402767,0.00030517578125,0.07637771394959175
0.038,0.0471157431602478,0.0006103515625,0.0749931358957624
0.0384999999999999,0.0471010841429233,0.00091552734375,0.07407849834902543
0.039,0.0470857731997966,0.00030517578125,0.07273841754652303
0.0394999999999999,0.0470703765749931,0.0006103515625,0.0714021515698551
0.04,0.0470550991594791,-0.00030517578125,0.07017253921197325
0.0404999999999999,0.0470400266349315,0.0006103515625,0.06906056535437387
0.041,0.0470248237252235,0.0,0.06786602178721397
0.0414999999999999,0.0470094829797744,0.00030517578125,0.06661410050287923
0.042,0.0469942614436149,0.00030517578125,0.06544955188217642
0.0424999999999999,0.0469793677330017,0.0006103515625,0.06445584646906566
0.043,0.0469636023044586,0.0,0.06299611766821162
0.0434999999999999,0.0469486452639102,0.00091552734375,0.06202103973221031
0.044,0.0469335652887821,0.0,0.06094652382000946
0.0444999999999999,0.0469181239604949,0.0006103515625,0.05968953192172047
0.045,0.0469032377004623,0.00030517578125,0.05874203840445403
0.0454999999999999,0.0468875914812088,0.00030517578125,0.05740044894604062
0.046,0.0468725152313709,0.0,0.05639532943884474
0.0464999999999999,0.0468576774001121,0.00091552734375,0.05548393228001924
0.047,0.0468420945107936,0.0006103515625,0.05419074346551263
0.0474999999999999,0.0468271672725677,0.0006103515625,0.05326093005423683
0.048,0.0468117818236351,0.0006103515625,0.052095729877934684
0.0484999999999999,0.0467965342104435,0.0,0.05102624441857962
0.049,0.0467814914882183,0.00030517578125,0.050060238079525525
0.0494999999999999,0.0467660091817379,0.00030517578125,0.04888919926269017
0.05,0.0467510148882865,0.00030517578125,0.0479720731450543
0.0504999999999999,0.0467359907925128,0.0006103515625,0.04702572551029255
0.051,0.0467201769351959,-0.00030517578125,0.04573253585636393
0.0514999999999999,0.0467055104672908,0.00091552734375,0.04500144065498606
0.052,0.0466900691390037,0.00030517578125,0.04388787723102363
0.0524999999999999,0.0466747432947158,-0.00030517578125,0.04286127957263267
0.053,0.0466594062745571,0.00030517578125,0.041849132428859175
0.0534999999999999,0.0466442182660102,0.0006103515625,0.04091472455138786
0.054,0.0466288588941097,0.00030517578125,0.03991112684592022
0.0544999999999999,0.0466139651834964,0.0,0.039110748249092886
0.055,0.0465987026691436,0.00030517578125,0.03813862911355176
0.0554999999999999,0.0465837270021438,0.0006103515625,0.03729669949182055
0.056,0.0465679690241813,0.0,0.036143821602859234
0.0564999999999999,0.0465527847409248,0.00030517578125,0.03526734601449639
0.057,0.0465381331741809,0.00030517578125,0.03459121405782741
0.0574999999999999,0.0465226396918296,0.00030517578125,0.033562593101994664
0.058,0.0465072877705097,0.0,0.03262495982635692
0.0584999999999999,0.0464923866093158,0.0006103515625,0.03187105963705785
0.059,0.0464770905673503,0.00030517578125,0.030958007843374154
0.0595,0.0464621037244796,0.00030517578125,0.030174000011076115
0.06,0.0464467294514179,0.00030517578125,0.029248718848763927
0.0605,0.046431615948677,0.00030517578125,0.028438362701704935
0.061,0.0464165695011615,0.0,0.027654244215729335
0.0615,0.0464014150202274,0.00030517578125,0.026834277027477614
0.062,0.0463862121105194,0.00030517578125,0.02600843364427074
0.0625,0.0463708080351352,0.0006103515625,0.025130532738610167
0.0629999999999999,0.0463554784655571,0.0006103515625,0.024300939053505312
0.0635,0.0463406667113304,0.00030517578125,0.023652110647880777
0.0639999999999999,0.0463252253830432,0.00030517578125,0.02278990752922948
0.0645,0.0463103018701076,0.00030517578125,0.022113430392142138
0.0649999999999999,0.0462949536740779,0.00091552734375,0.021301735024916033
0.0655,0.0462797507643699,0.0006103515625,0.02055388551881917
0.0659999999999999,0.046264499425888,0.0,0.019802408039829293
0.0665,0.0462492257356643,0.00030517578125,0.019057192101177244
0.0669999999999999,0.0462340787053108,0.00030517578125,0.018361046168434522
0.0675,0.0462188832461833,0.0006103515625,0.017657586613187486
0.0679999999999999,0.0462037660181522,0.00030517578125,0.016985010846858627
0.0685,0.0461884103715419,0.0006103515625,0.016254827979028774
0.0689999999999999,0.0461732000112533,0.00030517578125,0.015580561055410898
0.0695,0.0461579374969005,0.0006103515625,0.014902418764541384
0.0699999999999999,0.0461429767310619,0.0006103515625,0.014312136919207078
0.0705,0.0461279042065143,0.0006103515625,0.013694330757044182
0.0709999999999999,0.0461123548448085,0.0006103515625,0.012967712889617646
0.0715,0.046097308397293,0.00030517578125,0.012385006141819596
0.0719999999999999,0.0460820421576499,0.00030517578125,0.011755707979348917
0.0725,0.0460669510066509,0.00091552734375,0.011178652400283703
0.0729999999999999,0.0460519604384899,0.0006103515625,0.01063050901839499
0.0735,0.0460366457700729,0.00091552734375,0.010017649566288922
0.0739999999999999,0.0460215099155902,0.00030517578125,0.009458347062166863
0.0745,0.0460062846541404,0.0006103515625,0.008891157888805207
0.0749999999999999,0.0459910295903682,0.0006103515625,0.008331431180663765
0.0755,0.045975774526596,0.00030517578125,0.007786046732924343
0.0759999999999999,0.0459603257477283,0.00030517578125,0.007219251980019615
0.0765,0.0459453836083412,0.00091552734375,0.006761207330772989
0.0769999999999999,0.0459300093352794,0.00030517578125,0.006234580129761275
0.0775,0.045914851129055,0.0006103515625,0.005760949363412485
0.0779999999999999,0.045899748802185,0.0006103515625,0.005308244790126191
0.0785,0.045884221792221,0.00091552734375,0.004802968920436808
0.0789999999999999,0.045869156718254,0.0006103515625,0.004386237466325114
0.0795,0.045853853225708,0.0006103515625,0.003948077816058491
0.0799999999999999,0.0458387546241283,0.0,0.0035539965785123
0.0805,0.0458233244717121,0.00030517578125,0.003132990933124995
0.0809999999999999,0.0458079390227794,0.0,0.0027386849039809885
0.0815,0.0457932911813259,0.0,0.0024446104418266047
0.0819999999999999,0.0457776933908462,0.00091552734375,0.002062394657336273
0.0825,0.0457625985145568,0.0006103515625,0.0017540925746128916
0.0829999999999999,0.0457476265728473,0.0,0.001474668312936421
0.0835,0.0457323417067527,0.00030517578125,0.0011890989298721766
0.0839999999999999,0.0457171015441417,0.00091552734375,0.0009319758845650637
0.0845,0.0457018129527568,0.00091552734375,0.0006982379901714993
0.0849999999999999,0.0456866398453712,0.0006103515625,0.0004993258338049878
0.0855,0.045671597123146,-0.00030517578125,0.00033481796782995805
0.0859999999999999,0.0456562265753746,0.0,0.0001893600162765212
0.0865,0.0456412248313427,0.00030517578125,9.033643338664708e-05
0.0869999999999999,0.0456262491643428,0.00030517578125,2.6343560704783993e-05
0.0875,0.0456105321645736,0.0006103515625,0.0
0.0879999999999999,0.0455958098173141,0.0006103515625,0.0
0.0885,0.0455803424119949,0.0,0.0
0.0889999999999999,0.0455649681389331,0.00030517578125,0.0
0.0895,0.0455502495169639,0.0006103515625,0.0
0.0899999999999999,0.0455345921218395,0.0006103515625,0.0
0.0905,0.0455192886292934,0.00030517578125,0.0
0.0909999999999999,0.0455045104026794,0.00091552734375,0.0
0.0915,0.0454892180860042,0.00091552734375,0.0
0.0919999999999999,0.0454739741981029,0.0,0.0
0.0925,0.0454587340354919,0.0006103515625,0.0
0.0929999999999999,0.0454435087740421,0.00030517578125,0.0
0.0935,0.0454282760620117,0.00030517578125,0.0
0.0939999999999999,0.045412790030241,0.0006103515625,0.0
0.0945,0.0453980043530464,0.00091552734375,0.0
0.0949999999999999,0.0453827306628227,0.0006103515625,0.0
0.0955,0.0453671813011169,0.00030517578125,0.0
0.0959999999999999,0.0453524887561798,0.00030517578125,0.0
0.0965,0.0453371740877628,0.00030517578125,0.0
0.0969999999999999,0.0453216657042503,0.0006103515625,0.0
0.0975,0.045306596904993,0.0006103515625,0.0
0.0979999999999999,0.0452912710607051,0.00030517578125,0.0
0.0985,0.0452764779329299,0.0006103515625,0.0
0.0989999999999999,0.0452610850334167,0.0006103515625,0.0
0.0995,0.04524552449584,0.0006103515625,0.0
0.0999999999999999,0.0452309437096118,0.00091552734375,0.0
0.1005,0.0452153272926807,0.0,0.0
0.1009999999999999,0.0452000238001346,0.0006103515625,0.0
0.1015,0.0451848171651363,0.0006103515625,0.0
0.1019999999999999,0.0451693087816238,0.00030517578125,0.0
0.1025,0.0451544113457202,0.0006103515625,0.0
0.1029999999999999,0.045139130204916,0.0006103515625,0.0
0.1035,0.0451238788664341,0.00030517578125,0.0
0.1039999999999999,0.0451088361442089,0.0006103515625,0.0
0.1045,0.0450932122766971,0.0006103515625,0.0
0.1049999999999999,0.0450783260166645,0.00030517578125,0.0
0.1055,0.0450626276433467,0.0006103515625,0.0
0.1059999999999999,0.0450473129749298,0.00091552734375,0.0
0.1065,0.0450325272977352,0.00091552734375,0.0
0.1069999999999999,0.0450171418488025,-0.00030517578125,0.0
0.1075,0.0450018905103206,0.00091552734375,0.0
0.1079999999999999,0.0449869818985462,0.0006103515625,0.0
0.1085,0.0449716411530971,0.00030517578125,0.0
0.1089999999999999,0.0449566580355167,0.0006103515625,0.0
0.1095,0.0449412502348423,0.0006103515625,0.0
0.1099999999999999,0.044926282018423,0.00030517578125,0.0
0.1105,0.0449112206697464,0.00030517578125,0.0
0.1109999999999999,0.044895727187395,0.001220703125,0.0
0.1115,0.0448803901672363,0.0,0.0
0.1119999999999999,0.0448655523359775,0.00030517578125,0.0
0.1125,0.0448503196239471,0.00030517578125,0.0
0.1129999999999999,0.044835340231657,0.0006103515625,0.0
0.1135,0.0448201186954975,0.00030517578125,0.0
0.1139999999999999,0.0448045395314693,0.0006103515625,0.0
0.1145,0.044789794832468,0.0006103515625,0.0
0.1149999999999999,0.0447740778326988,0.00030517578125,0.0
0.1155,0.0447592101991176,0.00030517578125,0.0
0.1159999999999999,0.0447441227734088,0.0006103515625,0.0
0.1165,0.0447288043797016,0.0006103515625,0.0
0.1169999999999999,0.0447138622403144,0.0006103515625,0.0
0.1175,0.0446987748146057,0.0006103515625,0.0
0.118,0.0446833483874797,-0.00030517578125,0.0
0.1185,0.0446680821478366,0.0006103515625,0.0
0.119,0.0446525961160659,0.00030517578125,0.0
0.1195,0.0446374863386154,0.00030517578125,0.0
0.12,0.0446223281323909,0.001220703125,0.0
0.1205,0.0446070916950702,0.00091552734375,0.0
0.121,0.0445920452475547,0.00091552734375,0.0
0.1215,0.044576521962881,0.00030517578125,0.0
0.122,0.0445617660880088,0.0006103515625,0.0
0.1225,0.0445462353527545,0.0006103515625,0.0
0.123,0.0445311442017555,0.00091552734375,0.0
0.1235,0.044515885412693,0.0006103515625,0.0
0.124,0.0445008762180805,0.00030517578125,0.0
0.1245,0.0444858819246292,0.00030517578125,0.0
0.125,0.0444705672562122,0.00030517578125,0.0
0.1254999999999999,0.0444551222026348,0.00030517578125,0.0
0.126,0.0444399714469909,0.00030517578125,0.0
0.1264999999999999,0.044424895197153,0.001220703125,0.0
0.127,0.0444095730781555,0.0,0.0
0.1274999999999999,0.0443947203457355,0.0006103515625,0.0
0.128,0.0443791300058364,0.00091552734375,0.0
0.1284999999999999,0.044364046305418,0.0006103515625,0.0
0.129,0.0443487428128719,0.0006103515625,0.0
0.1294999999999999,0.0443337522447109,0.00030517578125,0.0
0.13,0.0443184562027454,0.0006103515625,0.0
0.1304999999999999,0.0443031340837478,0.0006103515625,0.0
0.131,0.0442883484065532,0.0006103515625,0.0
0.1314999999999999,0.0442726127803325,0.00030517578125,0.0
0.132,0.0442571975290775,0.0006103515625,0.0
0.1324999999999999,0.0442422851920127,0.00030517578125,0.0
0.133,0.0442271307110786,0.00030517578125,0.0
0.1334999999999999,0.0442116409540176,0.0,0.0
0.134,0.0441966019570827,0.0,0.0
0.1344999999999999,0.0441814288496971,0.0006103515625,0.0
0.135,0.0441665314137935,0.0006103515625,0.0
0.1354999999999999,0.0441510751843452,0.0006103515625,0.0
0.136,0.0441358014941215,0.00030517578125,0.0
0.1364999999999999,0.0441208556294441,0.0006103515625,0.0
0.137,0.0441052168607711,0.00030517578125,0.0
0.1374999999999999,0.0440903529524803,0.0006103515625,0.0
0.138,0.044075209647417,0.0,0.0
0.1384999999999999,0.0440600551664829,0.00091552734375,0.0
0.139,0.0440447814762592,0.0006103515625,0.0
0.1394999999999999,0.0440296344459056,0.0006103515625,0.0
0.14,0.0440142787992954,0.0006103515625,0.0
0.1404999999999999,0.0439994670450687,0.00091552734375,0.0
0.141,0.0439841151237487,0.0006103515625,0.0
0.1414999999999999,0.0439687557518482,0.00030517578125,0.0
0.142,0.0439534969627857,0.0006103515625,0.0
0.1424999999999999,0.0439383648335933,0.0,0.0
0.143,0.0439235679805278,0.00030517578125,0.0
0.1434999999999999,0.0439079068601131,0.0006103515625,0.0
0.144,0.0438928045332431,0.0,0.0
0.1444999999999999,0.0438775867223739,0.0006103515625,0.0
0.145,0.0438621789216995,0.0006103515625,0.0
0.1454999999999999,0.0438473150134086,0.00091552734375,0.0
0.146,0.0438317842781543,0.00091552734375,0.0
0.1464999999999999,0.0438166297972202,0.00030517578125,0.0
0.147,0.043801512569189,0.0,0.0
0.1474999999999999,0.0437863059341907,0.00030517578125,0.0
0.148,0.0437710508704185,0.0,0.0
0.1484999999999999,0.0437558554112911,0.0,0.0
0.149,0.0437407381832599,0.00030517578125,0.0
0.1494999999999999,0.043725449591875,0.00091552734375,0.0
0.15,0.0437100641429424,-0.00030517578125,0.0
0.1504999999999999,0.0436952635645866,0.0006103515625,0.0
0.151,0.0436800792813301,0.00091552734375,0.0
0.1514999999999999,0.043664701282978,0.0006103515625,0.0
0.152,0.0436496809124946,0.00030517578125,0.0
0.1524999999999999,0.0436342321336269,0.0,0.0
0.153,0.0436189286410808,0.00030517578125,0.0
0.1534999999999999,0.0436038263142108,0.0006103515625,0.0
0.154,0.0435885228216648,0.0006103515625,0.0
0.1544999999999999,0.043573573231697,0.0006103515625,0.0
0.155,0.0435580685734748,0.0006103515625,0.0
0.1554999999999999,0.0435428768396377,0.0006103515625,0.0
0.156,0.0435279756784439,0.0006103515625,0.0
0.1564999999999999,0.0435126088559627,0.0006103515625,0.0
0.157,0.0434971153736114,0.00091552734375,0.0
0.1574999999999999,0.0434820838272571,0.00030517578125,0.0
0.158,0.0434666499495506,0.00030517578125,0.0
0.1584999999999999,0.0434515848755836,0.00030517578125,0.0
0.159,0.0434365943074226,0.00091552734375,0.0
0.1594999999999999,0.0434211865067482,0.0006103515625,0.0
0.16,0.0434055551886558,0.00030517578125,0.0
0.1604999999999999,0.0433906316757202,0.00030517578125,0.0
0.161,0.0433758683502674,0.00030517578125,0.0
0.1614999999999999,0.0433606393635273,0.0,0.0
0.162,0.0433449819684028,0.00030517578125,0.0
0.1624999999999999,0.0433300137519836,0.00030517578125,0.0
0.163,0.0433147028088569,0.0006103515625,0.0
0.1634999999999999,0.0432995967566967,0.00030517578125,0.0
0.164,0.0432847030460834,0.0006103515625,0.0
0.1644999999999999,0.0432690791785717,0.00091552734375,0.0
0.165,0.0432542860507965,0.0006103515625,0.0
0.1654999999999999,0.0432392545044422,0.00030517578125,0.0
0.166,0.0432237610220909,0.0006103515625,0.0
0.1664999999999999,0.0432086586952209,0.00091552734375,0.0
0.167,0.043193444609642,0.00030517578125,0.0
0.1674999999999999,0.0431783124804496,0.0,0.0
0.168,0.0431630499660968,0.00030517578125,0.0
0.1684999999999999,0.0431477017700672,0.0,0.0
0.169,0.0431327931582927,0.0006103515625,0.0
0.1694999999999999,0.0431175455451011,0.00030517578125,0.0
0.17,0.0431021861732006,0.0006103515625,0.0
