time [s],Lmtc [m],STIM [ ],Fsee [N]
0.0,0.048014648258686,0.00030517578125,0.22154051893775714
0.0004999999999999,0.0480148680508136,0.0,0.2217672558321956
0.001,0.048014722764492,0.00091552734375,0.22160738132910704
0.0014999999999999,0.0480151660740375,0.00030517578125,0.2220650503011247
0.002,0.0480147264897823,-0.00030517578125,0.22159010562415224
0.0024999999999999,0.0480148755013942,0.0,0.22174191598758264
0.003,0.0480145886540412,0.0006103515625,0.2214361925168546
0.0034999999999999,0.0480145961046218,0.00030517578125,0.22144573141943658
0.004,0.0480149649083614,0.00091552734375,0.22183002734300286
0.0044999999999999,0.0480148382484912,0.0006103515625,0.22168774671778538
0.005,0.0480148121714592,0.0006103515625,0.22165445030153008
0.0054999999999999,0.0480147674679756,-0.00030517578125,0.22160282510758506
0.006,0.0480146184563636,0.00030517578125,0.22144463504251957
0.0064999999999999,0.0480150133371353,0.0006103515625,0.22185673260069214
0.007,0.0480146445333957,0.00030517578125,0.22146216328096263
0.0074999999999999,0.0480139181017875,0.0006103515625,0.22072165795559465
0.008,0.0480125918984413,0.00091552734375,0.2194136693568163
0.0084999999999999,0.0480098687112331,0.0006103515625,0.2167765560443593
0.009,0.0480060800909996,0.0,0.2132516544114613
0.0094999999999999,0.0480001382529735,0.00091552734375,0.20786943355652476
0.01,0.0479935966432094,0.00030517578125,0.20237430847048452
0.0104999999999999,0.0479857362806797,0.00030517578125,0.19616531741273327
0.011,0.0479766204953193,0.0,0.18948322114487287
0.0114999999999999,0.0479673221707344,0.0,0.18350399795544545
0.012,0.0479568988084793,0.0,0.17740552211818802
0.0124999999999999,0.0479469336569309,0.00030517578125,0.1727173392465897
0.013,0.0479364357888698,0.0006103515625,0.16842082498940042
0.0134999999999999,0.0479258522391319,0.0,0.16487711919400708
0.014,0.047915693372488,0.0006103515625,0.1623541745126664
0.0144999999999999,0.0479046180844306,0.0006103515625,0.1595496459521728
0.015,0.0478942804038524,0.00030517578125,0.15783121982628168
0.0154999999999999,0.0478840321302413,0.00091552734375,0.15637579971220367
0.016,0.047873605042696,0.00030517578125,0.154901165306402
0.0164999999999999,0.0478633381426334,0.0006103515625,0.15366563650676415
0.017,0.0478528849780559,0.00030517578125,0.15233470630034412
0.0174999999999999,0.0478426441550254,0.00030517578125,0.1512293303893785
0.018,0.0478326752781868,0.0006103515625,0.1503296358717974
0.0184999999999999,0.0478221178054809,0.00030517578125,0.14893711224743353
0.019,0.047812283039093,0.0006103515625,0.14817168904012892
0.0194999999999999,0.0478021949529647,0.0006103515625,0.14713026929878106
0.02,0.0477916523814201,0.0,0.1457464050474913
0.0204999999999999,0.0477818772196769,0.0,0.14501422827206203
0.021,0.0477716885507106,0.0006103515625,0.14388212681783713
0.0214999999999999,0.0477617233991622,0.00030517578125,0.1429380956384706
0.022,0.0477514043450355,0.00030517578125,0.14170590431682942
0.0224999999999999,0.0477412790060043,0.00030517578125,0.14066633404155168
0.023,0.0477312318980693,0.0006103515625,0.13968170320453152
0.0234999999999999,0.0477207116782665,0.00030517578125,0.13833850324890185
0.024,0.0477110221982002,0.00030517578125,0.13767919149016739
0.0244999999999999,0.0477012954652309,0.0,0.1368898495336731
0.025,0.0476909838616848,0.00030517578125,0.13561768072189592
0.0254999999999999,0.0476809851825237,0.00030517578125,0.1346421107453377
0.026,0.0476706959307193,0.0,0.13344922415346033
0.0264999999999999,0.0476607196033,0.0,0.1325271576235076
0.027,0.0476505868136882,0.0006103515625,0.1314702867382081
0.0274999999999999,0.0476404875516891,0.0006103515625,0.1304490766405982
0.028,0.0476307496428489,0.00091552734375,0.12968753222744683
0.0284999999999999,0.0476203635334968,0.0006103515625,0.12841152271946563
0.029,0.0476104021072387,0.0006103515625,0.1275098997815922
0.0294999999999999,0.0476004295051097,0.0006103515625,0.12657929903357096
0.03,0.047589935362339,0.0006103515625,0.12527324008603
0.0304999999999999,0.0475803166627883,0.00030517578125,0.12465613352083528
0.031,0.0475700572133064,0.00030517578125,0.12350123475491702
0.0314999999999999,0.0475601851940155,0.00030517578125,0.12266324695371446
0.032,0.0475498251616954,0.00030517578125,0.12145719203460897
0.0324999999999999,0.0475399419665336,0.00030517578125,0.12063950590005829
0.033,0.0475296750664711,0.00030517578125,0.11952313001085114
0.0334999999999999,0.0475194938480854,-0.00030517578125,0.11850450593469054
0.034,0.0475096367299556,0.00030517578125,0.1177206025505048
0.0344999999999999,0.0474995002150535,0.00030517578125,0.11670848143737046
0.035,0.0474891513586044,0.00030517578125,0.11557146665509636
0.0354999999999999,0.0474790930747985,0.00030517578125,0.11467417136474845
0.036,0.0474692769348621,0.0,0.11392628980756628
0.0364999999999999,0.0474592149257659,0.0006103515625,0.11296912893242654
0.037,0.047449205070734,0.00091552734375,0.112054155591123
0.0374999999999999,0.0474390275776386,0.00091552734375,0.11102774727055346
0.038,0.0474288910627365,0.0,0.11005484284816469
0.0384999999999999,0.0474186353385448,0.00091552734375,0.1090174379453029
0.039,0.0474085286259651,0.0006103515625,0.10810686596177375
0.0394999999999999,0.0473985597491264,0.00091552734375,0.10728392307147819
0.04,0.0473884157836437,0.0,0.10632632722916514
0.0404999999999999,0.0473782494664192,0.0006103515625,0.10536752749090839
0.041,0.0473681762814521,0.0,0.10448244577367043
0.0414999999999999,0.0473582968115806,0.0006103515625,0.10371850596795765
0.042,0.0473480261862278,0.0,0.10267433763105595
0.0424999999999999,0.0473380461335182,0.00030517578125,0.10185160046974258
0.043,0.0473279953002929,0.0006103515625,0.10096925517003295
0.0434999999999999,0.0473178476095199,-0.00030517578125,0.10002785746307821
0.044,0.0473076477646827,0.00030517578125,0.09906933613130127
0.0444999999999999,0.0472976267337799,0.0006103515625,0.09824262690527251
0.045,0.0472873635590076,0.00030517578125,0.09725479416899722
0.0454999999999999,0.0472775883972644,0.00030517578125,0.09659544745766951
0.046,0.047267735004425,0.0006103515625,0.09584082676899959
0.0464999999999999,0.0472574867308139,0.0006103515625,0.09482144739796883
0.047,0.0472476333379745,0.0006103515625,0.09408404376878136
0.0474999999999999,0.0472373440861702,0.0006103515625,0.09305502954765657
0.048,0.0472275838255882,0.0006103515625,0.09239102432862457
0.0484999999999999,0.0472169294953346,0.0006103515625,0.09114657210922217
0.049,0.0472070798277854,0.00030517578125,0.09048020824632425
0.0494999999999999,0.0471972674131393,0.0006103515625,0.0897988437588258
0.05,0.0471868179738521,0.0006103515625,0.08870315091657965
0.0504999999999999,0.0471768602728843,0.0006103515625,0.08795935575313882
0.051,0.0471668876707553,-0.00030517578125,0.08718894867719043
0.0514999999999999,0.047156274318695,0.0006103515625,0.08602968770952867
0.052,0.0471465662121772,0.00091552734375,0.08547860684328358
0.0524999999999999,0.0471363887190818,0.00030517578125,0.08459465511551126
0.053,0.0471264719963073,0.0006103515625,0.08387985230113885
0.0534999999999999,0.0471163019537925,0.0,0.0830002594845399
0.054,0.0471060462296009,0.00030517578125,0.08208888170356983
0.0544999999999999,0.0470965579152107,0.0006103515625,0.08164425449985462
0.055,0.0470861196517944,0.00030517578125,0.08058060104812616
0.0554999999999999,0.0470756515860557,0.00030517578125,0.07955883415638629
0.056,0.0470659397542476,0.0006103515625,0.0790169259976583
0.0564999999999999,0.0470556244254112,0.00030517578125,0.07808366020257006
0.057,0.0470456108450889,0.0006103515625,0.07735348229110346
0.0574999999999999,0.0470357462763786,-0.00030517578125,0.07669632608278366
0.058,0.0470259487628936,0.00030517578125,0.0760541288860389
0.0584999999999999,0.0470155775547027,0.001220703125,0.07507188389578763
0.059,0.0470051318407058,0.001220703125,0.07409523986096059
0.0595,0.0469952300190925,0.0006103515625,0.07346064016986673
0.06,0.0469851568341255,0.00030517578125,0.07270749617800246
0.0605,0.0469749718904495,0.00030517578125,0.07189412594180851
0.061,0.0469650477170944,0.0006103515625,0.0712361056207016
0.0615,0.0469548925757408,0.0006103515625,0.07043715396372802
0.062,0.0469448007643222,0.0006103515625,0.06968483822078543
0.0625,0.0469350554049015,0.0006103515625,0.06912298353805141
0.0629999999999999,0.0469245351850986,0.00030517578125,0.06811553252967599
0.0635,0.0469145141541957,0.0006103515625,0.06742804371181707
0.0639999999999999,0.0469042956829071,0.00030517578125,0.06662953565765062
0.0645,0.0468945391476154,-0.00030517578125,0.06608880896037693
0.0649999999999999,0.0468842945992946,0.00030517578125,0.06525969058676895
0.0655,0.0468740798532962,0.0006103515625,0.0644690166889724
0.0659999999999999,0.0468641817569732,0.0006103515625,0.0638583425691837
0.0665,0.0468536615371704,-0.00030517578125,0.06290967168285252
0.0669999999999999,0.0468440987169742,0.00030517578125,0.06249839780839435
0.0675,0.0468341261148452,0.0006103515625,0.061826750513724923
0.0679999999999999,0.0468238219618797,0.00091552734375,0.060984278588395155
0.0685,0.046813741326332,0.0,0.060284321174289376
0.0689999999999999,0.0468034595251083,0.00030517578125,0.059487008106066226
0.0695,0.0467936396598815,0.0006103515625,0.05894257639200869
0.0699999999999999,0.0467830523848533,0.0006103515625,0.05799376124542707
0.0705,0.0467735342681407,0.00030517578125,0.05762104045233918
0.0709999999999999,0.0467635169625282,0.0006103515625,0.056949993478695476
0.0715,0.0467530339956283,0.00030517578125,0.05605471280786806
0.0719999999999999,0.0467430986464023,0.0006103515625,0.055468120385779494
0.0725,0.0467329435050487,0.00091552734375,0.05476304654192076
0.0729999999999999,0.0467229299247264,0.0006103515625,0.054135692988676064
0.0735,0.0467127487063407,0.00030517578125,0.05342559089553168
0.0739999999999999,0.0467025153338909,0.0006103515625,0.05270268529899529
0.0745,0.0466931350529193,0.00091552734375,0.0523975773421279
0.0749999999999999,0.0466824695467948,0.00030517578125,0.051431834454732345
0.0755,0.0466724932193756,0.00030517578125,0.050845441853870806
0.0759999999999999,0.0466623976826667,0.0,0.050196788458772346
0.0765,0.0466519556939601,0.00030517578125,0.049392579932083826
0.0769999999999999,0.0466422103345394,0.00030517578125,0.04893883658246768
0.0775,0.0466318577527999,0.00030517578125,0.04818111043177585
0.0779999999999999,0.0466220527887344,0.0,0.0476960112116226
0.0785,0.0466117449104785,0.00091552734375,0.04696524957839089
0.0789999999999999,0.046601440757513,0.0006103515625,0.04625751758610719
0.0795,0.0465917848050594,0.0,0.04585536575159917
0.0799999999999999,0.0465813167393207,0.00030517578125,0.045062594693728614
0.0805,0.0465712659060955,0.00030517578125,0.04448524380032759
0.0809999999999999,0.0465612933039665,0.00030517578125,0.04394023294467951
0.0815,0.046551413834095,0.00030517578125,0.04342998636854464
0.0819999999999999,0.046541154384613,-0.00030517578125,0.04274507262041005
0.0825,0.0465308092534542,0.0006103515625,0.04204075809997617
0.0829999999999999,0.0465209856629371,0.00091552734375,0.04157920544854134
0.0835,0.0465108379721641,0.0,0.04096448671357007
0.0839999999999999,0.0465007163584232,0.0,0.04036889298854373
0.0845,0.0464909933507442,0.0,0.03994523405632276
0.0849999999999999,0.0464807860553264,0.0006103515625,0.03930072910724655
0.0855,0.0464706532657146,0.0006103515625,0.038702097714163164
0.0859999999999999,0.0464603714644908,0.0,0.03805067051923822
0.0865,0.046450387686491,-0.00030517578125,0.037535471550937706
0.0869999999999999,0.0464406944811344,0.00091552734375,0.03713404349156752
0.0875,0.0464303158223629,0.0006103515625,0.03643873800322532
0.0879999999999999,0.0464205183088779,0.0006103515625,0.03599942966371274
0.0885,0.0464102365076541,0.00030517578125,0.035356806622579166
0.0889999999999999,0.0464000180363655,0.0006103515625,0.03475692237404093
0.0895,0.0463902465999126,0.00030517578125,0.034343257416384464
0.0899999999999999,0.0463796108961105,0.00030517578125,0.03358136650420103
0.0905,0.0463700965046882,0.00030517578125,0.033284450908533735
0.0909999999999999,0.0463599301874637,0.00030517578125,0.03270953064857141
0.0915,0.0463497228920459,0.00091552734375,0.03212948893127165
0.0919999999999999,0.0463399775326252,0.00030517578125,0.03173438141071211
0.0925,0.0463295355439186,0.0006103515625,0.03106646048242553
0.0929999999999999,0.0463197715580463,0.00030517578125,0.030673826858345712
0.0935,0.0463094785809516,-0.00030517578125,0.030075057132493824
0.0939999999999999,0.0462993308901786,0.0006103515625,0.029545322158614808
0.0945,0.0462896078824996,0.00030517578125,0.029176002005255015
0.0949999999999999,0.0462790951132774,0.0006103515625,0.028510183603580017
0.0955,0.0462691038846969,0.00030517578125,0.02805526779833387
0.0959999999999999,0.0462590903043746,0.0,0.027591026976327863
0.0965,0.0462488867342472,0.00030517578125,0.027060908474186993
0.0969999999999999,0.046238973736763,0.0006103515625,0.026640840201049648
0.0975,0.0462291799485683,0.00030517578125,0.026257527914885444
0.0979999999999999,0.0462190434336662,0.00030517578125,0.025749145822562665
0.0985,0.0462087281048297,0.0006103515625,0.02518928804863195
0.0989999999999999,0.0461984761059284,0.0,0.024666053299084403
0.0995,0.0461886003613472,0.00030517578125,0.02427845348502354
0.0999999999999999,0.0461780205368995,0.00030517578125,0.023654414251582222
0.1005,0.0461683571338653,0.0,0.023351721385439186
0.1009999999999999,0.0461582317948341,0.0006103515625,0.022885118759226757
0.1015,0.0461482778191566,0.0006103515625,0.022479301914736
0.1019999999999999,0.0461379587650299,0.00030517578125,0.021956863309161
0.1025,0.0461278222501277,0.0,0.021504567894598505
0.1029999999999999,0.0461180955171585,0.00030517578125,0.021184659876071453
0.1035,0.046107679605484,-0.00030517578125,0.020643508046878953
0.1039999999999999,0.0460976138710975,0.00030517578125,0.020225818931480243
0.1045,0.0460879951715469,0.0,0.019945373830274594
0.1049999999999999,0.0460776649415493,0.0006103515625,0.01943970926639591
0.1055,0.0460675358772277,0.0006103515625,0.0190074624833904
0.1059999999999999,0.0460574552416801,0.0006103515625,0.018595162950546775
0.1065,0.0460474714636802,0.0,0.018214694198722008
0.1069999999999999,0.0460374318063259,0.0,0.017819016759387584
0.1075,0.0460271760821342,0.00030517578125,0.01736529041754633
0.1079999999999999,0.046017188578844,0.0006103515625,0.016996545116016913
0.1085,0.0460070967674255,0.0006103515625,0.016600035972760566
0.1089999999999999,0.0459967479109764,0.0006103515625,0.016137759049970436
0.1095,0.0459869913756847,0.0006103515625,0.015847424104606732
0.1099999999999999,0.045976635068655,0.0006103515625,0.015390563978644373
0.1105,0.0459666848182678,0.001220703125,0.015052872811903564
0.1109999999999999,0.0459567494690418,0.0006103515625,0.014718853799881405
0.1115,0.0459464117884635,0.0006103515625,0.014281088241798622
0.1119999999999999,0.0459365248680114,0.0,0.013969398177708545
0.1125,0.0459262989461422,0.00030517578125,0.013571187105723555
0.1129999999999999,0.0459159612655639,0.0006103515625,0.013153356290597462
0.1135,0.0459060631692409,0.0,0.01285309715336696
0.1139999999999999,0.0458960719406604,0.00030517578125,0.012528962276610161
0.1145,0.0458859913051128,0.00030517578125,0.012185184637745308
0.1149999999999999,0.0458757989108562,0.00030517578125,0.011819125319152808
0.1155,0.0458655878901481,0.0006103515625,0.011455228639126205
0.1159999999999999,0.0458558909595012,0.00030517578125,0.011215706028518714
0.1165,0.0458452329039573,0.0,0.010754700126880009
0.1169999999999999,0.0458351448178291,0.00030517578125,0.010437592691694355
0.1175,0.0458251163363456,0.0006103515625,0.010136770180059856
0.118,0.0458150133490562,0.0006103515625,0.00982215366379714
0.1185,0.0458052121102809,0.0,0.00957568888716181
0.119,0.0457945987582206,0.00030517578125,0.009157711582592716
0.1195,0.0457850061357021,0.0006103515625,0.00896384188410587
0.12,0.0457745566964149,0.0006103515625,0.008590681050693737
0.1205,0.0457645840942859,0.00030517578125,0.008323378315754205
0.121,0.0457545667886734,0.0006103515625,0.008048962752071636
0.1215,0.0457443334162235,0.0006103515625,0.007735803951202574
0.122,0.0457345135509967,0.00030517578125,0.007507343860171069
0.1225,0.045724269002676,0.00030517578125,0.0071994899932998025
0.123,0.0457145497202873,0.00030517578125,0.006994305426384868
0.1235,0.0457044467329978,0.0006103515625,0.006718823800333854
0.124,0.0456937700510025,0.00030517578125,0.006348132934668448
0.1245,0.0456842556595802,0.00030517578125,0.006190492677346239
0.125,0.0456740334630012,0.0006103515625,0.00590893249919067
0.1254999999999999,0.0456638559699058,-0.00030517578125,0.005641574017869466
0.126,0.0456539317965507,0.00030517578125,0.005420923209119429
0.1264999999999999,0.0456438660621643,0.0,0.005180044727629679
0.127,0.0456339232623577,0.0,0.004962495906225662
0.1274999999999999,0.0456234142184257,0.0006103515625,0.004662512168392583
0.128,0.0456137172877788,0.0,0.0044923667858596545
0.1284999999999999,0.0456037893891334,0.0,0.004288576527466422
0.129,0.0455933958292007,0.0006103515625,0.0040224930970741805
0.1294999999999999,0.0455835871398448,0.0006103515625,0.0038449985165351984
0.13,0.0455733314156532,0.00030517578125,0.003609650375526649
0.1304999999999999,0.0455631241202354,0.0006103515625,0.003387817983458494
0.131,0.0455530621111393,0.00030517578125,0.003190580283406613
0.1314999999999999,0.0455429218709468,0.0006103515625,0.002988568496101149
0.132,0.0455331392586231,0.0006103515625,0.0028340662023723386
0.1324999999999999,0.0455227419734001,0.00030517578125,0.0026116372468884797
0.133,0.0455128215253353,0.00091552734375,0.0024501596213442074
0.1334999999999999,0.0455030314624309,0.00030517578125,0.0023059538023310275
0.134,0.0454924702644348,0.00030517578125,0.0020855525274971463
0.1344999999999999,0.0454824157059192,0.0006103515625,0.0019252960219878295
0.135,0.0454725362360477,0.00030517578125,0.0017865262460438232
0.1354999999999999,0.0454621240496635,0.0006103515625,0.001603748525579873
0.136,0.0454522147774696,0.00030517578125,0.0014728630036686826
0.1364999999999999,0.0454418361186981,0.00030517578125,0.0013081339678714132
0.137,0.045432262122631,0.0,0.0012139298213652986
0.1374999999999999,0.0454218164086341,0.00091552734375,0.0010574685632472596
0.138,0.0454116091132164,0.00030517578125,0.0009272949421453085
0.1384999999999999,0.045401707291603,0.0006103515625,0.0008241018849060905
0.139,0.0453913807868957,0.0,0.000700522982536623
0.1394999999999999,0.0453815460205078,0.00030517578125,0.0006129780036625064
0.14,0.0453708879649639,0.00030517578125,0.0004887324830307566
0.1404999999999999,0.0453611426055431,0.00030517578125,0.00041852536307088753
0.141,0.0453514568507671,0.00030517578125,0.00035515792012041957
0.1414999999999999,0.0453411415219306,0.00030517578125,0.0002723070680513913
0.142,0.0453312955796718,0.00030517578125,0.0002148587401665557
0.1424999999999999,0.0453208535909652,0.00030517578125,0.00014688068914971438
0.143,0.0453112311661243,0.00091552734375,0.00010962673728577812
0.1434999999999999,0.0453007407486438,0.0006103515625,6.111886596471998e-05
0.144,0.0452904850244522,0.00030517578125,2.9139193468575494e-05
0.1444999999999999,0.0452807918190956,0.0006103515625,1.2775522074253629e-05
0.145,0.0452706553041935,0.0,1.482642064575133e-06
0.1454999999999999,0.0452604703605175,0.00030517578125,0.0
0.146,0.0452502332627773,0.0006103515625,0.0
0.1464999999999999,0.0452400669455528,0.00030517578125,0.0
0.147,0.0452302284538745,0.00030517578125,0.0
0.1474999999999999,0.0452201105654239,-0.00030517578125,0.0
0.148,0.0452101603150367,0.00030517578125,0.0
0.1484999999999999,0.0451997518539428,0.00030517578125,0.0
0.149,0.04518948122859,0.00030517578125,0.0
0.1494999999999999,0.0451798066496849,0.00030517578125,0.0
0.15,0.0451695062220096,0.00091552734375,0.0
0.1504999999999999,0.045159425586462,0.00030517578125,0.0
0.151,0.0451494865119457,0.00030517578125,0.0
0.1514999999999999,0.0451396033167839,0.0,0.0
0.152,0.0451294891536235,0.0,0.0
