time [s],Lmtc [m],STIM [ ],Fsee [N]
0.0,0.0480149015784263,0.0006103515625,0.2215674498026623
0.0004999999999999,0.048014611005783,0.0006103515625,0.22126470187341687
0.001,0.0480149872601032,0.0,0.22166531444002582
0.0014999999999999,0.0480147860944271,0.00091552734375,0.22145201015087773
0.002,0.048014510422945,0.0,0.22117265826886762
0.0024999999999999,0.0480148419737815,0.0006103515625,0.22153181075850614
0.003,0.048014797270298,0.00030517578125,0.2214842475689779
0.0034999999999999,0.0480146743357181,0.0006103515625,0.22135852486232996
0.004,0.0480148680508136,0.0006103515625,0.22156564329853123
0.0044999999999999,0.0480148419737815,0.0006103515625,0.22153641476631547
0.005,0.0480149015784263,0.0,0.22159719175703518
0.0054999999999999,0.0480147935450077,0.00030517578125,0.22148180733521716
0.006,0.0480148568749427,0.00030517578125,0.2215481118694514
0.0064999999999999,0.0480145178735256,0.0006103515625,0.22119921154056074
0.007,0.0480136536061763,0.0006103515625,0.22033341698454428
0.0074999999999999,0.0480125397443771,0.00030517578125,0.2192714013206456
0.008,0.0480089299380779,0.0006103515625,0.2157468850995558
0.0084999999999999,0.0480038933455944,0.00091552734375,0.21106214738005402
0.009,0.0479967519640922,0.00091552734375,0.20469521251617712
0.0094999999999999,0.0479871593415737,0.0,0.19660839294802968
0.01,0.0479755960404872,0.00030517578125,0.1876403180322053
0.0104999999999999,0.047962550073862,0.0006103515625,0.17864462586047083
0.011,0.0479483939707279,0.00030517578125,0.17029511898712862
0.0114999999999999,0.0479331091046333,-0.0006103515625,0.16287215464211174
0.012,0.0479169599711895,0.00030517578125,0.15674307835937154
0.0124999999999999,0.047900304198265,0.0006103515625,0.15204613649536117
0.013,0.0478836335241794,0.0006103515625,0.14869467401877517
0.0134999999999999,0.0478660762310028,0.00091552734375,0.1455582906176362
0.014,0.0478494800627231,0.00091552734375,0.1436798932456091
0.0144999999999999,0.0478328727185726,0.0006103515625,0.141840969232556
0.015,0.0478157997131347,0.0,0.13973179125334037
0.0154999999999999,0.0477992296218872,0.00030517578125,0.1380844449678205
0.016,0.0477824285626411,0.0,0.13622862355593715
0.0164999999999999,0.0477661602199077,0.00030517578125,0.1347401744300466
0.017,0.0477496683597564,0.00091552734375,0.13299986448038015
0.0174999999999999,0.0477333217859268,0.00091552734375,0.13135034806524995
0.018,0.0477173626422882,0.0006103515625,0.1299188968162593
0.0184999999999999,0.0477006584405899,0.00030517578125,0.12792326317651426
0.019,0.0476849339902401,0.0006103515625,0.12665614283611557
0.0194999999999999,0.0476686917245388,0.0006103515625,0.12490494467369169
0.02,0.0476520210504531,0.00091552734375,0.1229522637575683
0.0204999999999999,0.0476360842585563,0.00030517578125,0.12156400256655933
0.021,0.047619555145502,0.0,0.11972226313342513
0.0214999999999999,0.0476034134626388,0.0,0.11820849020463134
0.022,0.0475870482623577,0.001220703125,0.1165190922669087
0.0224999999999999,0.0475706942379474,0.0006103515625,0.11487409832611495
0.023,0.0475543960928916,0.0,0.1132829887152735
0.0234999999999999,0.0475381128489971,0.00030517578125,0.11170445080648395
0.024,0.0475221909582614,0.0,0.1103422365599904
0.0244999999999999,0.0475060753524303,0.00091552734375,0.10878518424764712
0.025,0.0474893189966678,0.0,0.10686973269725769
0.0254999999999999,0.0474732778966426,0.0006103515625,0.10551456635085445
0.026,0.0474568903446197,0.001220703125,0.10389417026417956
0.0264999999999999,0.0474405661225318,0.0006103515625,0.10235077231058409
0.027,0.0474246777594089,0.0006103515625,0.1010679553362492
0.0274999999999999,0.0474083796143531,0.00030517578125,0.09946737040773633
0.028,0.0473920665681362,0.0006103515625,0.09791009958008552
0.0284999999999999,0.0473757497966289,0.0,0.0963839955409936
0.029,0.0473594069480896,0.00030517578125,0.09486469851760375
0.0294999999999999,0.0473433770239353,0.0,0.09354321466133389
0.03,0.0473266430199146,0.0,0.09178432336542264
0.0304999999999999,0.0473109595477581,0.00030517578125,0.0907274839054657
0.031,0.0472947657108306,0.0006103515625,0.08925305048188675
0.0314999999999999,0.0472781844437122,0.00030517578125,0.08759971304443759
0.032,0.0472622662782669,0.001220703125,0.08638717224291535
0.0324999999999999,0.0472458973526954,0.0006103515625,0.08487287704943822
0.033,0.0472298003733158,0.00091552734375,0.08355009405551311
0.0334999999999999,0.0472133383154869,0.0006103515625,0.08202137390389586
0.034,0.0471971817314624,0.0006103515625,0.0807144848238875
0.0344999999999999,0.0471810698509216,0.0006103515625,0.07941171843329049
0.035,0.0471645332872867,0.001220703125,0.07787814146052872
0.0354999999999999,0.0471486672759056,0.0006103515625,0.07675735206601075
0.036,0.0471323579549789,0.00030517578125,0.07533781707717543
0.0364999999999999,0.0471157766878604,0.0006103515625,0.0738341613976818
0.037,0.0470997877418994,0.00030517578125,0.07268928957482544
0.0374999999999999,0.0470835901796817,0.00030517578125,0.07138933214851291
0.038,0.047066930681467,0.0006103515625,0.06986822964251817
0.0384999999999999,0.0470509454607963,0.00030517578125,0.06875829082737926
0.039,0.0470346771180629,0.0006103515625,0.06746393472742117
0.0394999999999999,0.047018576413393,0.0006103515625,0.06626471161259279
0.04,0.0470022745430469,0.0006103515625,0.06495776748703408
0.0404999999999999,0.0469860173761844,0.0006103515625,0.06369902435520025
0.041,0.0469699166715145,0.0,0.06252995560370063
0.0414999999999999,0.0469533689320087,0.0006103515625,0.061137850204570146
0.042,0.0469375029206275,0.00030517578125,0.06012517697923581
0.0424999999999999,0.0469212792813777,0.001220703125,0.05889176837097286
0.043,0.0469048731029033,0.00030517578125,0.05759471267109557
0.0434999999999999,0.0468887723982334,0.00030517578125,0.0564790319192777
0.044,0.0468724146485328,0.00091552734375,0.05523508707489648
0.0444999999999999,0.0468562953174114,0.0006103515625,0.054129146154672694
0.045,0.0468399040400981,0.0006103515625,0.05289495527930983
0.0454999999999999,0.0468236319720745,0.00030517578125,0.05174651610328604
0.046,0.0468077287077903,0.00030517578125,0.05076997282561504
0.0464999999999999,0.0467911474406719,0.00030517578125,0.04946362400149477
0.047,0.0467750951647758,0.00030517578125,0.04844646153527131
0.0474999999999999,0.0467587485909462,0.00030517578125,0.04728582691800326
0.048,0.046742632985115,0.00091552734375,0.046248242014411314
0.0484999999999999,0.0467263422906398,0.00091552734375,0.045131949949183556
0.049,0.0467098988592624,0.0006103515625,0.043972216809225854
0.0494999999999999,0.0466937348246574,0.00091552734375,0.04295953926089748
0.05,0.0466776974499225,0.0,0.041993916974924904
0.0504999999999999,0.0466612130403518,0.00030517578125,0.04083645806271786
0.051,0.0466449558734893,0.0006103515625,0.03980988471134017
0.0514999999999999,0.0466285124421119,0.001220703125,0.03871888176161542
0.052,0.0466118976473808,0.001220703125,0.037587178417409564
0.0524999999999999,0.0465962328016757,0.0006103515625,0.036856650813577245
0.053,0.0465795919299125,-0.00030517578125,0.03569928240411674
0.0534999999999999,0.0465635769069194,0.0006103515625,0.03482704064452592
0.054,0.0465474463999271,-0.00030517578125,0.033894928408312104
0.0544999999999999,0.0465311482548713,0.0006103515625,0.032902975773597166
0.055,0.046514943242073,0.00030517578125,0.03196330589015928
0.0554999999999999,0.0464985743165016,0.001220703125,0.030973722192752896
0.056,0.0464826859533786,0.00091552734375,0.03017461288820364
0.0564999999999999,0.0464661531150341,0.00091552734375,0.029133464369121134
0.057,0.0464501231908798,0.00030517578125,0.028302083942520748
0.0574999999999999,0.0464339889585971,0.001220703125,0.02742887900632762
0.058,0.046417511999607,0.0006103515625,0.026448418409777293
0.0584999999999999,0.0464015267789363,0.00091552734375,0.025660124171413782
0.059,0.0463853105902671,-0.00030517578125,0.024790225458827076
0.0595,0.0463687889277935,0.0006103515625,0.023836495426128687
0.06,0.0463528484106063,0.0006103515625,0.023094380803785924
0.0605,0.0463368259370327,0.0006103515625,0.022316498978437807
0.061,0.0463203787803649,0.00091552734375,0.021412082777269786
0.0615,0.0463040620088577,0.0006103515625,0.02057528628927372
0.062,0.0462878905236721,0.00091552734375,0.019796622315151422
0.0625,0.0462718307971954,0.00091552734375,0.019056815889862067
0.0629999999999999,0.0462554544210433,0.0006103515625,0.018231326203458527
0.0635,0.0462389588356018,0.00030517578125,0.017394759459158464
0.0639999999999999,0.0462231338024139,0.00091552734375,0.016762674017789896
0.0645,0.0462068356573581,0.0006103515625,0.015994175876322184
0.0649999999999999,0.0461904928088188,0.0006103515625,0.015231373137968128
0.0655,0.0461743362247943,0.0,0.014533490309280162
0.0659999999999999,0.0461581051349639,0.00030517578125,0.013825322082565157
0.0665,0.0461419634521007,0.00030517578125,0.01315110583515495
0.0669999999999999,0.0461255051195621,0.0006103515625,0.012411565715640827
0.0675,0.0461093485355377,0.00091552734375,0.011763754130353337
0.0679999999999999,0.0460929460823535,0.0,0.011070029051263105
0.0685,0.0460768118500709,0.00030517578125,0.010453383282065163
0.0689999999999999,0.046060986816883,0.00030517578125,0.009910234037684214
0.0695,0.0460441336035728,0.0006103515625,0.009155759154797773
0.0699999999999999,0.0460280589759349,0.00030517578125,0.008591280266407104
0.0705,0.0460122153162956,0.00091552734375,0.008077898597218221
0.0709999999999999,0.0459953919053077,0.0006103515625,0.007385434854178485
0.0715,0.0459795594215393,0.00091552734375,0.0069029556923616495
0.0719999999999999,0.0459631606936454,0.0006103515625,0.006325729464792214
0.0725,0.0459468252956867,0.00091552734375,0.0057795573625656635
0.0729999999999999,0.0459308885037899,0.0006103515625,0.005314271670876279
0.0735,0.045914351940155,0.00030517578125,0.0047674804927581695
0.0739999999999999,0.0458984300494194,0.0006103515625,0.004333412894487617
0.0745,0.0458818525075912,0.0006103515625,0.003820939377903621
0.0749999999999999,0.045865498483181,0.00030517578125,0.0033642664046071654
0.0755,0.0458494499325752,0.0,0.0029657719102742864
0.0759999999999999,0.0458330586552619,0.0006103515625,0.0025454288498878343
0.0765,0.0458169803023338,0.00030517578125,0.002182269869440989
0.0769999999999999,0.0458006858825683,0.0006103515625,0.0018185046322831268
0.0775,0.0457842722535133,0.00091552734375,0.0014707731209071516
0.0779999999999999,0.0457682535052299,0.00030517578125,0.0011831520139282045
0.0785,0.0457516126334667,0.00030517578125,0.0008783707260248779
0.0789999999999999,0.0457355640828609,0.00091552734375,0.0006464066164682905
0.0795,0.0457195751368999,0.00030517578125,0.0004469185403435117
0.0799999999999999,0.0457030497491359,0.0006103515625,0.0002596434196985545
0.0805,0.0456871353089809,0.00030517578125,0.00013496364058921504
0.0809999999999999,0.0456707514822483,0.0006103515625,4.129137212759792e-05
0.0815,0.0456548258662223,0.00030517578125,2.4485045001884036e-06
0.0819999999999999,0.0456383638083934,0.0006103515625,0.0
0.0825,0.0456220358610153,0.00030517578125,0.0
0.0829999999999999,0.0456058233976364,0.0006103515625,0.0
0.0835,0.0455896183848381,0.0,0.0
0.0839999999999999,0.0455735512077808,0.00091552734375,0.0
0.0845,0.0455573983490467,0.00030517578125,0.0
0.0849999999999999,0.0455411411821842,0.00091552734375,0.0
0.0855,0.0455249585211277,0.0,0.0
0.0859999999999999,0.0455083362758159,0.0006103515625,0.0
0.0865,0.0454916656017303,0.00091552734375,0.0
0.0869999999999999,0.0454761758446693,0.0006103515625,0.0
0.0875,0.0454598255455493,0.00030517578125,0.0
0.0879999999999999,0.0454436764121055,0.0,0.0
0.0885,0.0454273298382759,0.00030517578125,0.0
0.0889999999999999,0.0454111322760582,0.00091552734375,0.0
0.0895,0.0453948825597763,0.00030517578125,0.0
0.0899999999999999,0.0453781485557556,0.00091552734375,0.0
0.0905,0.045362289994955,0.0006103515625,0.0
0.0909999999999999,0.0453458540141582,0.0006103515625,0.0
0.0915,0.0453298203647136,0.00030517578125,0.0
0.0919999999999999,0.0453135073184967,0.00091552734375,0.0
0.0925,0.0452972799539566,0.0006103515625,0.0
0.0929999999999999,0.0452812016010284,0.0006103515625,0.0
0.0935,0.0452648550271987,0.0006103515625,0.0
0.0939999999999999,0.0452485084533691,0.0006103515625,0.0
0.0945,0.0452323406934738,0.0006103515625,0.0
0.0949999999999999,0.0452158711850643,0.0006103515625,0.0
0.0955,0.0451998747885227,0.00030517578125,0.0
0.0959999999999999,0.0451836213469505,0.00030517578125,0.0
0.0965,0.0451670065522193,0.00091552734375,0.0
0.0969999999999999,0.0451510250568389,0.0,0.0
0.0975,0.0451345182955265,0.0006103515625,0.0
0.0979999999999999,0.0451185181736946,0.00091552734375,0.0
0.0985,0.0451019555330276,0.0006103515625,0.0
0.0989999999999999,0.0450857803225517,0.001220703125,0.0
0.0995,0.0450699031352996,0.00091552734375,0.0
0.0999999999999999,0.0450529679656028,0.00030517578125,0.0
0.1005,0.045036893337965,0.00030517578125,0.0
0.1009999999999999,0.0450206287205219,0.00030517578125,0.0
0.1015,0.0450040698051452,-0.00030517578125,0.0
0.1019999999999999,0.0449883043766021,0.0,0.0
0.1025,0.0449723191559314,0.00030517578125,0.0
0.1029999999999999,0.0449558123946189,0.00091552734375,0.0
0.1035,0.0449398756027221,0.0006103515625,0.0
0.1039999999999999,0.0449237078428268,0.0,0.0
0.1045,0.044907558709383,0.00091552734375,0.0
0.1049999999999999,0.0448911152780056,0.0006103515625,0.0
0.1055,0.044874832034111,0.0006103515625,0.0
0.1059999999999999,0.0448588356375694,0.0006103515625,0.0
0.1065,0.0448421686887741,0.0006103515625,0.0
0.1069999999999999,0.0448265112936496,0.00030517578125,0.0
0.1075,0.0448101609945297,0.00030517578125,0.0
0.1079999999999999,0.0447939038276672,0.00030517578125,0.0
0.1085,0.0447777584195137,0.00030517578125,0.0
0.1089999999999999,0.044761337339878,0.0006103515625,0.0
0.1095,0.0447451472282409,0.001220703125,0.0
0.1099999999999999,0.0447289310395717,0.0006103515625,0.0
0.1105,0.0447125472128391,0.00030517578125,0.0
0.1109999999999999,0.0446966774761676,0.0,0.0
0.1115,0.0446801781654357,0.00030517578125,0.0
0.1119999999999999,0.0446639470756053,0.0006103515625,0.0
0.1125,0.0446479432284832,0.00091552734375,0.0
0.1129999999999999,0.0446311645209789,0.0,0.0
0.1135,0.0446155257523059,0.0006103515625,0.0
0.1139999999999999,0.0445990227162838,0.0006103515625,0.0
0.1145,0.0445828065276145,0.0006103515625,0.0
0.1149999999999999,0.0445666722953319,0.0006103515625,0.0
0.1155,0.0445504151284694,0.00091552734375,0.0
0.1159999999999999,0.0445342548191547,0.0006103515625,0.0
0.1165,0.0445180423557758,0.00091552734375,0.0
0.1169999999999999,0.0445016883313655,0.0,0.0
0.1175,0.0444854423403739,0.00091552734375,0.0
0.118,0.044469229876995,0.00091552734375,0.0
0.1185,0.0444532185792923,0.0006103515625,0.0
0.119,0.0444369502365589,0.00091552734375,0.0
0.1195,0.0444205477833747,0.0006103515625,0.0
0.12,0.0444045849144458,0.00030517578125,0.0
0.1205,0.0443878918886184,0.00091552734375,0.0
0.121,0.0443717464804649,0.00030517578125,0.0
0.1215,0.0443559661507606,0.0006103515625,0.0
0.122,0.0443393141031265,0.0006103515625,0.0
0.1225,0.0443236082792282,0.0006103515625,0.0
0.123,0.0443068705499172,0.0006103515625,0.0
0.1235,0.0442907586693763,0.001220703125,0.0
0.124,0.0442745313048362,0.00030517578125,0.0
0.1245,0.0442578718066215,0.0006103515625,0.0
0.125,0.0442419201135635,0.00030517578125,0.0
0.1254999999999999,0.0442255102097988,0.0006103515625,0.0
0.126,0.0442091152071952,0.00091552734375,0.0
0.1264999999999999,0.0441930890083313,0.0006103515625,0.0
0.127,0.0441769398748874,0.0006103515625,0.0
0.1274999999999999,0.0441607981920242,0.0006103515625,0.0
0.128,0.044144432991743,0.0006103515625,0.0
0.1284999999999999,0.0441280603408813,0.0006103515625,0.0
0.129,0.0441120602190494,0.00030517578125,0.0
0.1294999999999999,0.044095754623413,0.00030517578125,0.0
0.13,0.0440795421600341,0.00091552734375,0.0
0.1304999999999999,0.0440633706748485,0.00091552734375,0.0
0.131,0.0440468378365039,0.00030517578125,0.0
0.1314999999999999,0.0440311394631862,0.00091552734375,0.0
0.132,0.0440147146582603,0.00030517578125,0.0
0.1324999999999999,0.0439983867108821,0.0006103515625,0.0
0.133,0.0439822599291801,0.0006103515625,0.0
0.1334999999999999,0.0439657680690288,0.0006103515625,0.0
0.134,0.0439497493207454,0.0006103515625,0.0
0.1344999999999999,0.0439335219562053,0.0006103515625,0.0
0.135,0.0439170263707637,-0.00030517578125,0.0
0.1354999999999999,0.0439010262489318,0.00091552734375,0.0
0.136,0.0438846684992313,0.00030517578125,0.0
0.1364999999999999,0.0438686087727546,0.00091552734375,0.0
0.137,0.0438522063195705,0.00030517578125,0.0
0.1374999999999999,0.0438361316919326,0.00030517578125,0.0
0.138,0.0438199266791343,0.0006103515625,0.0
0.1384999999999999,0.0438033193349838,0.00030517578125,0.0
0.139,0.043787557631731,0.0006103515625,0.0
0.1394999999999999,0.0437712036073207,0.00030517578125,0.0
0.14,0.0437546297907829,0.0006103515625,0.0
0.1404999999999999,0.0437387079000473,0.001220703125,0.0
0.141,0.0437222346663475,0.00030517578125,0.0
0.1414999999999999,0.0437059290707111,0.00030517578125,0.0
0.142,0.0436898805201053,0.0006103515625,0.0
0.1424999999999999,0.0436735153198242,0.0006103515625,0.0
0.143,0.0436573289334774,0.0006103515625,0.0
0.1434999999999999,0.0436410568654537,0.0006103515625,0.0
0.144,0.0436247885227203,0.0,0.0
0.1444999999999999,0.0436086542904377,0.0,0.0
0.145,0.0435923226177692,0.00091552734375,0.0
0.1454999999999999,0.0435763150453567,0.00091552734375,0.0
0.146,0.0435598492622375,0.0006103515625,0.0
0.1464999999999999,0.0435434281826019,0.00030517578125,0.0
0.147,0.0435274578630924,0.0006103515625,0.0
0.1474999999999999,0.0435107909142971,0.0006103515625,0.0
0.148,0.0434947833418846,0.0006103515625,0.0
0.1484999999999999,0.0434784181416034,0.00091552734375,0.0
0.149,0.0434622876346111,0.0006103515625,0.0
0.1494999999999999,0.0434459671378135,0.0006103515625,0.0
0.15,0.0434295907616615,0.00091552734375,0.0
0.1504999999999999,0.0434136018157005,0.0,0.0
0.151,0.0433973856270313,0.00030517578125,0.0
0.1514999999999999,0.0433809161186218,0.00030517578125,0.0
0.152,0.0433649495244026,0.0006103515625,0.0
0.1524999999999999,0.0433486402034759,0.00030517578125,0.0
0.153,0.0433324724435806,0.00091552734375,0.0
0.1534999999999999,0.0433164574205875,0.00091552734375,0.0
0.154,0.0432999730110168,0.0006103515625,0.0
0.1544999999999999,0.0432838536798954,0.00030517578125,0.0
0.155,0.0432677902281284,0.0006103515625,0.0
0.1554999999999999,0.043251346796751,0.0006103515625,0.0
0.156,0.0432351790368557,0.0,0.0
0.1564999999999999,0.0432188212871551,0.0006103515625,0.0
0.157,0.0432030633091926,0.00030517578125,0.0
0.1574999999999999,0.0431865155696868,0.00030517578125,0.0
0.158,0.0431702211499214,0.00030517578125,0.0
0.1584999999999999,0.0431541092693805,0.0006103515625,0.0
0.159,0.0431377664208412,0.0006103515625,0.0
0.1594999999999999,0.0431214310228824,0.0006103515625,0.0
0.16,0.0431054159998893,0.00030517578125,0.0
0.1604999999999999,0.0430890768766403,0.00030517578125,0.0
0.161,0.0430732071399688,0.0,0.0
0.1614999999999999,0.0430563613772392,0.0006103515625,0.0
0.162,0.0430403016507625,0.0006103515625,0.0
0.1624999999999999,0.0430243387818336,0.00030517578125,0.0
0.163,0.0430076383054256,0.00030517578125,0.0
0.1634999999999999,0.0429917313158512,0.0006103515625,0.0
0.164,0.04297536611557,0.0006103515625,0.0
0.1644999999999999,0.0429591946303844,0.0006103515625,0.0
0.165,0.0429428927600383,0.00030517578125,0.0
0.1654999999999999,0.0429265759885311,0.0006103515625,0.0
0.166,0.0429105684161186,0.00030517578125,0.0
0.1664999999999999,0.0428941696882247,0.00030517578125,0.0
0.167,0.0428781919181346,0.00091552734375,0.0
0.1674999999999999,0.0428621917963027,-0.00030517578125,0.0
0.168,0.0428454279899597,0.0006103515625,0.0
0.1684999999999999,0.0428294204175472,0.00030517578125,0.0
0.169,0.0428131073713302,0.00030517578125,0.0
0.1694999999999999,0.04279700294137,0.0006103515625,0.0
0.17,0.0427807085216045,0.00030517578125,0.0
0.1704999999999999,0.0427640452980995,0.00030517578125,0.0
