time [s],Lmtc [m],STIM [ ],Fsee [N]
0.0,0.0480149388313293,0.0006103515625,0.2215714104213399
0.0004999999999999,0.0480148866772651,0.0006103515625,0.22151507251243452
0.001,0.0480150021612644,0.0,0.2216348009765322
0.0014999999999999,0.0480149574577808,0.0006103515625,0.22158472191975107
0.002,0.0480144880712032,0.0006103515625,0.22109951166726416
0.0024999999999999,0.0480151623487472,0.0006103515625,0.22181677257633742
0.003,0.0480150170624256,0.00030517578125,0.22165605614378084
0.0034999999999999,0.0480148829519748,0.00030517578125,0.22151174246971975
0.004,0.0480152294039726,0.00091552734375,0.22187172195800525
0.0044999999999999,0.0480148643255233,0.0006103515625,0.2214810484927419
0.005,0.0480149127542972,0.00030517578125,0.22153241914309854
0.0054999999999999,0.0480147339403629,0.0006103515625,0.22134773585293963
0.006,0.0480146221816539,0.00152587890625,0.22124265067276025
0.0064999999999999,0.0480147004127502,0.00030517578125,0.22133757798537296
0.007,0.0480149239301681,0.0006103515625,0.22157667509944315
0.0074999999999999,0.0480149425566196,0.0006103515625,0.2215937049602361
0.008,0.0480150692164897,0.0,0.2217226333173379
0.0084999999999999,0.0480145849287509,0.0006103515625,0.22121379862738236
0.009,0.048014935106039,0.0,0.221590245275665
0.0094999999999999,0.0480143502354621,0.00030517578125,0.22098678880226996
0.01,0.0480137579143047,0.00030517578125,0.22041198998732633
0.0104999999999999,0.0480124652385711,0.001220703125,0.21916230235663592
0.011,0.0480092950165271,0.0006103515625,0.2160890340616914
0.0114999999999999,0.0480053424835205,0.0006103515625,0.21245684668477904
0.012,0.0479994416236877,0.0006103515625,0.2071800345348064
0.0124999999999999,0.0479921624064445,0.00091552734375,0.2010431521316538
0.013,0.0479838661849498,0.0006103515625,0.19456453719072422
0.0134999999999999,0.0479747131466865,0.0006103515625,0.1880516802151607
0.014,0.0479651130735874,0.00030517578125,0.18200166802270046
0.0144999999999999,0.0479551963508129,0.00030517578125,0.17658972910584833
0.015,0.0479446724057197,0.00030517578125,0.17156848935114227
0.0154999999999999,0.047934390604496,0.00030517578125,0.1676758936131808
0.016,0.0479240752756595,0.00091552734375,0.1644925346035894
0.0164999999999999,0.0479133799672126,0.00030517578125,0.16160441277995471
0.017,0.0479030944406986,0.0006103515625,0.15956906848065147
0.0174999999999999,0.0478923767805099,0.00030517578125,0.15749471431051776
0.018,0.047882292419672,0.0006103515625,0.15620684142505345
0.0184999999999999,0.0478715971112251,0.0006103515625,0.15452137679615302
0.019,0.0478615351021289,0.0006103515625,0.15349399185995072
0.0194999999999999,0.0478513538837432,0.0006103515625,0.15236125877325826
0.02,0.0478406250476837,0.0006103515625,0.1508334429225223
0.0204999999999999,0.0478308908641338,0.00030517578125,0.15016979431401123
0.021,0.0478206537663936,0.0,0.1490053484874939
0.0214999999999999,0.0478101857006549,0.00030517578125,0.14769640941020035
0.022,0.0478002503514289,0.0006103515625,0.1468486064173486
0.0224999999999999,0.047789953649044,0.00091552734375,0.14566755701248219
0.023,0.0477799586951732,0.0,0.14474127724367936
0.0234999999999999,0.047769907861948,0.00030517578125,0.14373436010912527
0.024,0.0477598085999488,0.0006103515625,0.1426785033294452
0.0244999999999999,0.0477496013045311,0.0006103515625,0.14154959074540865
0.025,0.0477391369640827,0.00030517578125,0.14025805100241112
0.0254999999999999,0.0477293618023395,0.0006103515625,0.13952712711972987
0.026,0.0477196276187896,0.00091552734375,0.13873752221727412
0.0264999999999999,0.0477089434862136,0.00091552734375,0.13719893127851415
0.027,0.0476993955671787,0.0006103515625,0.1366202241993492
0.0274999999999999,0.0476890467107296,0.0006103515625,0.13534598747350063
0.028,0.0476789809763431,0.00091552734375,0.13434593830814387
0.0284999999999999,0.0476690679788589,0.0006103515625,0.13345055358300353
0.029,0.0476587079465389,0.00091552734375,0.13220660898991657
0.0294999999999999,0.0476486682891845,0.00030517578125,0.13124986769969385
0.03,0.0476389564573764,0.0,0.13051053102066035
0.0304999999999999,0.0476285852491855,0.00030517578125,0.12924029985766824
0.031,0.0476186946034431,0.0,0.12838231163440547
0.0314999999999999,0.0476083569228649,0.00030517578125,0.1271764620380276
0.032,0.0475984364748001,0.00030517578125,0.12631960013160184
0.0324999999999999,0.0475887022912502,0.0006103515625,0.1255595799517131
0.033,0.0475782230496406,0.0006103515625,0.12422722090364563
0.0334999999999999,0.0475683584809303,0.0006103515625,0.12341299493965013
0.034,0.0475580878555774,0.0006103515625,0.12227805595741913
0.0344999999999999,0.0475477948784828,0.0,0.12117150919702309
0.035,0.0475377961993217,0.00030517578125,0.12030148915162256
0.0354999999999999,0.0475274212658405,0.00091552734375,0.11914878384998169
0.036,0.0475177615880966,0.0006103515625,0.11852960589692589
0.0364999999999999,0.0475075989961624,0.0,0.11748457798732581
0.037,0.0474977008998394,0.0006103515625,0.1166429896183106
0.0374999999999999,0.047487799078226,0.0006103515625,0.11577574794723122
0.038,0.0474773831665515,0.0006103515625,0.11454767532606744
0.0384999999999999,0.0474673993885517,0.0006103515625,0.11367963955620203
0.039,0.0474574118852615,0.00091552734375,0.11279228927500849
0.0394999999999999,0.0474468693137168,0.00030517578125,0.1115266477121151
0.04,0.0474373437464237,0.00091552734375,0.11101546527307407
0.0404999999999999,0.0474270544946193,0.0006103515625,0.10990441470763555
0.041,0.0474166348576545,0.0006103515625,0.10875731586420254
0.0414999999999999,0.0474066585302352,0.0,0.10795272474701102
0.042,0.0473965816199779,0.0006103515625,0.10705511523149565
0.0424999999999999,0.047386635094881,0.00091552734375,0.10623997145693262
0.043,0.0473763644695282,0.00030517578125,0.10519446178222852
0.0434999999999999,0.0473664216697216,0.0,0.10439167750964104
0.044,0.0473567396402359,0.00030517578125,0.10373338906796994
0.0444999999999999,0.0473460406064987,0.00091552734375,0.10237621169574772
0.045,0.0473359078168869,0.00030517578125,0.10149215662230315
0.0454999999999999,0.0473262555897235,0.00030517578125,0.10090892922472691
0.046,0.047315914183855,0.0,0.09982067646763679
0.0464999999999999,0.0473060235381126,0.00030517578125,0.09906605186955199
0.047,0.0472958274185657,0.00030517578125,0.09809286505757671
0.0474999999999999,0.0472859628498554,0.00030517578125,0.09735095679183138
0.048,0.0472758263349533,0.0,0.09641221615247826
0.0484999999999999,0.0472655929625034,0.0006103515625,0.09543183540960044
0.049,0.0472557991743087,0.00091552734375,0.0947509950779715
0.0494999999999999,0.0472454503178596,0.0006103515625,0.09369224562818083
0.05,0.0472353734076023,0.0,0.09284827578981772
0.0504999999999999,0.0472254045307636,0.00091552734375,0.09206933562780475
0.051,0.0472151823341846,0.0006103515625,0.09112290248677181
0.0514999999999999,0.0472054332494735,0.0006103515625,0.09048619191576898
0.052,0.0471952334046363,0.00030517578125,0.08953474200999784
0.0524999999999999,0.0471847765147686,0.0006103515625,0.08845797376826499
0.053,0.0471748746931552,0.0006103515625,0.08776758520431965
0.0534999999999999,0.0471647605299949,0.00030517578125,0.08692032449391737
0.054,0.0471549183130264,0.00091552734375,0.08624012585335863
0.0544999999999999,0.0471447445452213,0.00030517578125,0.08533868701652869
0.055,0.0471342653036117,0.00030517578125,0.08427910748957969
0.0554999999999999,0.0471248179674148,0.0006103515625,0.08387436600028027
0.056,0.0471144318580627,0.0006103515625,0.08283793150687584
0.0564999999999999,0.0471043437719345,0.00030517578125,0.0820246505879825
0.057,0.0470945984125137,0.00030517578125,0.08141297208036018
0.0574999999999999,0.0470841601490974,0.0006103515625,0.08036729825651377
0.058,0.0470743179321289,0.00030517578125,0.0797176484168209
0.0584999999999999,0.0470639616250991,0.00030517578125,0.07874893258024153
0.059,0.0470537990331649,0.0006103515625,0.0779300276067505
0.0595,0.0470439679920673,0.00030517578125,0.0773062166421919
0.06,0.0470336303114891,0.0006103515625,0.07636751412539723
0.0605,0.047023955732584,0.00091552734375,0.07583532724042023
0.061,0.0470133535563945,0.00030517578125,0.07474023524019328
0.0615,0.0470032729208469,0.00091552734375,0.07400035930351101
0.062,0.0469934530556201,0.00030517578125,0.07339993944383393
0.0625,0.0469831824302673,0.0006103515625,0.07252238565302206
0.0629999999999999,0.0469732508063316,0.00091552734375,0.07185607698952338
0.0635,0.0469632670283317,-0.00030517578125,0.0711478075401418
0.0639999999999999,0.0469526760280132,0.00030517578125,0.07010575057567311
0.0645,0.0469428859651088,0.0006103515625,0.06955329809362415
0.0649999999999999,0.0469326414167881,0.0006103515625,0.06872157194359288
0.0655,0.046922717243433,0.00091552734375,0.06808053383457209
0.0659999999999999,0.0469125732779502,0.00030517578125,0.06730659837490333
0.0665,0.0469025038182735,0.0,0.06658123844082915
0.0669999999999999,0.0468928031623363,0.00030517578125,0.06605136649084854
0.0675,0.0468824580311775,0.00030517578125,0.0651523578107816
0.0679999999999999,0.0468721948564052,0.0006103515625,0.06433333315301473
0.0685,0.0468622669577598,0.00030517578125,0.06370834248921459
0.0689999999999999,0.0468521453440189,0.00030517578125,0.06296927215496582
0.0695,0.0468420274555683,0.00091552734375,0.0622401881171162
0.0699999999999999,0.0468320101499557,0.00030517578125,0.06156916977899856
0.0705,0.0468220338225364,0.0006103515625,0.0609155069823544
0.0709999999999999,0.0468120090663433,0.0,0.0602319363651173
0.0715,0.0468013808131217,0.0,0.05924590666363928
0.0719999999999999,0.0467920117080211,0.00091552734375,0.05894414601056007
0.0725,0.0467814989387989,0.0006103515625,0.05800918313797969
0.0729999999999999,0.0467714220285415,0.00030517578125,0.05733811480249048
0.0735,0.0467617213726043,0.00030517578125,0.05685301121070443
0.0739999999999999,0.0467511415481567,0.00091552734375,0.05590749177416133
0.0745,0.0467409379780292,0.0006103515625,0.05519490124056814
0.0749999999999999,0.0467311255633831,0.00030517578125,0.05468088384960288
0.0755,0.0467210598289966,0.00030517578125,0.05402166739768052
0.0759999999999999,0.0467109978199005,0.0,0.05336678324498956
0.0765,0.0467010028660297,0.0006103515625,0.052747335680496645
0.0769999999999999,0.0466904900968074,0.0006103515625,0.05188082990554753
0.0775,0.0466807298362255,0.00030517578125,0.05140705573778508
0.0779999999999999,0.0466702170670032,0.0,0.0505555786654349
0.0785,0.0466603562235832,0.00091552734375,0.05004399394473583
0.0789999999999999,0.0466501004993915,0.0,0.04933144885660293
0.0795,0.0466398820281028,0.0006103515625,0.04865020181771848
0.0799999999999999,0.0466304495930671,0.0006103515625,0.04833782861733916
0.0805,0.0466198325157165,0.00091552734375,0.04744105768764773
0.0809999999999999,0.0466098673641681,0.0006103515625,0.046886318099439966
0.0815,0.0465998649597168,0.0006103515625,0.04630697825163489
0.0819999999999999,0.0465896390378475,0.0006103515625,0.04562531013432693
0.0825,0.0465797521173954,0.0,0.04510816297546597
0.0829999999999999,0.0465692766010761,0.00091552734375,0.04432098757902275
0.0835,0.0465592630207538,0.00030517578125,0.043766358728003336
0.0839999999999999,0.0465494208037853,0.00030517578125,0.04328130163859729
0.0845,0.046539083123207,0.00030517578125,0.04256842629597806
0.0849999999999999,0.046529222279787,0.0,0.042081591927825374
0.0855,0.0465189740061759,0.0006103515625,0.04141724865430881
0.0859999999999999,0.0465089455246925,0.00030517578125,0.040861191911790995
0.0865,0.0464991107583045,0.0,0.04038571819320241
0.0869999999999999,0.0464888140559196,0.0006103515625,0.03970506761586685
0.0875,0.0464789308607578,0.0006103515625,0.039214782313715196
0.0879999999999999,0.0464689545333385,0.00091552734375,0.038677276451157046
0.0885,0.0464587621390819,0.0006103515625,0.038050352045861636
0.0889999999999999,0.0464489944279193,0.0006103515625,0.0376090157146259
0.0895,0.0464384406805038,0.00030517578125,0.03683714560897529
0.0899999999999999,0.0464285723865032,0.0006103515625,0.03637523556390406
0.0905,0.0464184544980526,0.0006103515625,0.03580462778501714
0.0909999999999999,0.0464081652462482,0.00030517578125,0.035173223995775965
0.0915,0.0463984161615371,0.0006103515625,0.03476874057863446
0.0919999999999999,0.0463883057236671,0.00091552734375,0.03420742735820076
0.0925,0.0463779121637344,0.0006103515625,0.033543928443828454
0.0929999999999999,0.0463681295514106,0.0,0.033136430661650645
0.0935,0.0463578477501869,0.00091552734375,0.03252570156931388
0.0939999999999999,0.0463477484881877,-0.00030517578125,0.031999383670980194
0.0945,0.0463379696011543,0.00030517578125,0.031596555513693475
0.0949999999999999,0.0463279820978641,0.00091552734375,0.031103687228425884
0.0955,0.0463177971541881,0.0006103515625,0.03053966867179322
0.0959999999999999,0.0463073328137397,0.00030517578125,0.029884708331912785
0.0965,0.0462977662682533,0.0006103515625,0.029578289362186868
0.0969999999999999,0.0462876893579959,0.0,0.0290649806449279
0.0975,0.0462771281599998,0.0006103515625,0.028384880394121223
0.0979999999999999,0.0462672002613544,0.0,0.02795734656395339
0.0985,0.0462572090327739,0.0006103515625,0.027502584118801188
0.0989999999999999,0.0462470240890979,0.0006103515625,0.02697960601014642
0.0995,0.0462372675538063,0.0006103515625,0.02661308278265336
0.0999999999999999,0.0462271906435489,-0.00030517578125,0.026125666707344675
0.1005,0.0462169870734214,0.00030517578125,0.025600729080394263
0.1009999999999999,0.0462068878114223,0.00030517578125,0.025121456300279708
0.1015,0.046196274459362,0.00091552734375,0.024475738117099688
0.1019999999999999,0.046186663210392,0.0006103515625,0.02418727907026635
0.1025,0.0461766198277473,0.00030517578125,0.02373960565236385
0.1029999999999999,0.0461664870381355,0.00030517578125,0.02326544754570211
0.1035,0.0461563542485237,0.00030517578125,0.022797915163660417
0.1039999999999999,0.0461460202932357,0.00091552734375,0.022272367065545976
0.1045,0.0461360923945903,0.0,0.02188792947354405
0.1049999999999999,0.0461260005831718,0.00030517578125,0.02144899215084147
0.1055,0.0461161471903324,0.00030517578125,0.02108756533270796
0.1059999999999999,0.0461061485111713,0.00091552734375,0.020676677671170686
0.1065,0.0460958965122699,0.0006103515625,0.020190673368346058
0.1069999999999999,0.0460857786238193,0.00091552734375,0.019755940966504234
0.1075,0.0460755936801433,0.0006103515625,0.01930651602572341
0.1079999999999999,0.0460654869675636,0.00030517578125,0.01888751122144356
0.1085,0.0460556522011756,0.0006103515625,0.018552115151682303
0.1089999999999999,0.0460452660918235,0.00030517578125,0.018053004105726706
0.1095,0.0460357144474983,0.00091552734375,0.017806146517178833
0.1099999999999999,0.0460253916680812,0.00091552734375,0.017327704789435
0.1105,0.0460152477025985,0.00030517578125,0.01691194934199542
0.1109999999999999,0.0460054390132427,0.00030517578125,0.016594986264761788
0.1115,0.045994833111763,0.00091552734375,0.016056355795431965
0.1119999999999999,0.0459849946200847,0.0006103515625,0.015745211994086496
0.1125,0.0459748357534408,0.00030517578125,0.015344953280605311
0.1129999999999999,0.0459645092487335,0.00030517578125,0.01490685551946201
0.1135,0.0459547713398933,-0.00030517578125,0.014632198286354597
0.1139999999999999,0.0459445379674434,0.00091552734375,0.014223795588205714
0.1145,0.0459345802664756,0.00091552734375,0.013893689904538323
0.1149999999999999,0.0459244325757026,0.00030517578125,0.013516389602228842
0.1155,0.0459141433238983,0.00091552734375,0.013109963889548201
0.1159999999999999,0.0459041595458984,0.0,0.012787369219149254
0.1165,0.0458940863609313,0.00091552734375,0.012444214972312849
0.1169999999999999,0.045884046703577,0.0006103515625,0.012112590120962104
0.1175,0.0458738096058368,0.00030517578125,0.011737659643388083
0.118,0.0458635576069355,0.00030517578125,0.011367006847448187
0.1185,0.0458537824451923,0.0006103515625,0.011112471955046282
0.119,0.0458434335887432,0.0006103515625,0.010725473840664383
0.1195,0.0458336398005485,0.0006103515625,0.010471293345020595
0.12,0.0458234474062919,0.0006103515625,0.010127421195071972
0.1205,0.0458132661879062,0.0006103515625,0.009792608395148903
0.121,0.0458031073212623,0.0006103515625,0.009468632899987853
0.1215,0.0457930527627468,0.00030517578125,0.00917187271054409
0.122,0.0457826294004917,0.00091552734375,0.00880300373269005
0.1225,0.0457729250192642,0.00030517578125,0.008588983380482125
0.123,0.0457628928124904,-0.00030517578125,0.008306306664488245
0.1235,0.0457528308033943,0.00091552734375,0.008021080679661334
0.124,0.0457426160573959,0.00091552734375,0.007710451816278807
0.1245,0.0457324534654617,0.00091552734375,0.0074161283608521105
0.125,0.0457227751612663,0.00030517578125,0.007216734755933306
0.1254999999999999,0.0457123927772045,0.0,0.006886837803556141
0.126,0.0457023978233337,0.00030517578125,0.006635562838717757
0.1264999999999999,0.045692328363657,0.0006103515625,0.006374153532545106
0.127,0.0456819832324981,0.00030517578125,0.006069898285302658
0.1274999999999999,0.0456723049283027,0.00091552734375,0.005885616163888821
0.128,0.0456620417535305,0.00030517578125,0.005603407249595675
0.1284999999999999,0.0456518679857254,0.0006103515625,0.005342900583213414
0.129,0.0456421300768852,0.0006103515625,0.005156560487423984
0.1294999999999999,0.045631855726242,0.00030517578125,0.004887459418875422
0.13,0.0456218123435974,0.00030517578125,0.004660503071900953
0.1304999999999999,0.0456117130815982,0.00030517578125,0.004429540047184296
0.131,0.0456013530492782,0.00030517578125,0.00416650729812728
0.1314999999999999,0.0455916412174701,0.0006103515625,0.004001599685897583
0.132,0.0455813817679882,0.0006103515625,0.0037625524827954748
0.1324999999999999,0.0455715917050838,0.00091552734375,0.003592348495984555
0.133,0.0455614030361175,0.00091552734375,0.00337236795591804
0.1334999999999999,0.0455509014427661,0.00030517578125,0.003120192252461174
0.134,0.04554133862257,0.00091552734375,0.0029905721603984974
0.1344999999999999,0.0455308184027671,0.0006103515625,0.002748583479511735
0.135,0.0455211773514747,0.00030517578125,0.00261561986416425
0.1354999999999999,0.0455107353627681,-0.00030517578125,0.0023959250834675733
0.136,0.0455005504190921,0.0006103515625,0.0022125959171965647
0.1364999999999999,0.0454908832907676,0.0006103515625,0.0020876168305666892
0.137,0.0454806350171566,0.0006103515625,0.0019073559763083646
0.1374999999999999,0.0454704500734806,0.0006103515625,0.0017403936415774316
0.138,0.0454605370759964,0.0006103515625,0.0016042011938391175
0.1384999999999999,0.045450072735548,0.0006103515625,0.001425575104564796
0.139,0.0454401858150959,0.0,0.0013028917776639335
0.1394999999999999,0.0454301685094833,0.001220703125,0.0011742935388090383
0.14,0.0454201623797416,0.00091552734375,0.0010519609342142843
0.1404999999999999,0.0454099401831626,0.00030517578125,0.0009205640914506679
0.141,0.045399721711874,0.0006103515625,0.0007972819852247384
0.1414999999999999,0.0453897900879383,0.00091552734375,0.0006987170380919309
0.142,0.04537945240736,0.00091552734375,0.000583473967318091
0.1424999999999999,0.0453694611787796,0.00030517578125,0.0004948430070367663
0.143,0.0453594140708446,0.00030517578125,0.0004099912849285363
0.1434999999999999,0.0453492030501365,0.00030517578125,0.00032559386867326445
0.144,0.0453393049538135,0.00030517578125,0.0002613195429821905
0.1444999999999999,0.0453293025493621,0.00030517578125,0.00019998785682889594
0.145,0.0453190840780735,0.0006103515625,0.0001403853706231365
0.1454999999999999,0.045308917760849,0.00030517578125,9.18783409613871e-05
0.146,0.0452990233898162,0.00030517578125,5.7697368681327485e-05
0.1464999999999999,0.0452888682484626,0.00091552734375,2.7894665820702105e-05
0.147,0.0452786833047866,0.00030517578125,8.41009887262939e-06
0.1474999999999999,0.0452687852084636,0.00091552734375,6.461245405442917e-07
0.148,0.0452588014304637,0.00030517578125,0.0
0.1484999999999999,0.0452483631670475,0.0006103515625,0.0
0.149,0.0452383570373058,0.0006103515625,0.0
