Time [s],Lmtc [m],STIM [ ],Fsee [N],Gamma [ ],Lcerel [ ]
0.0,0.0191880882306936,0.9999998033015876,0.6435760489351328,0.0626882251670513,1.173703322090593
0.0014507059520389,0.019235448618387,0.9999998086674446,1.55230787935374,0.0870214350438235,1.1737033220832185
0.0029014119040778,0.0192793120537353,0.9999998113068342,2.7451236925203064,0.110722939321144,1.1737033158237553
0.0043521178561168,0.0193008358328589,0.9999998029303856,3.585568736984454,0.1338091374108489,1.1734303924167582
0.0058028238081557,0.019304117572924,0.9999997801681352,4.349302732386053,0.1562960027703275,1.1721762220316343
0.0072535297601947,0.0192940747289347,0.9999997469167822,4.99674727583356,0.178199094088282,1.170278354706276
0.0087042357122336,0.0192745409751388,0.9999997050935054,5.525111704920396,0.1995335662410347,1.167958114744379
0.0101549416642726,0.0192482560810675,0.999999655943028,5.94822401650024,0.2203141807243669,1.1653548681291912
0.0116056476163115,0.0192171626853645,0.9999996004381692,6.285793455666333,0.2405553158484733,1.1625574580130074
0.0130563535683504,0.0191826223391177,0.9999995394141988,6.556818235856502,0.2602709766786463,1.159623721222085
0.0145070595203894,0.0191455858673755,0.999999473616111,6.777093370637785,0.2794748047213829,1.156592253857654
0.0159577654724283,0.0191067199545163,0.9999994037150696,6.958881112147435,0.2981800873602602,1.1534894699127525
0.0174084714244673,0.0190664963492523,0.9999993303142536,7.111397834216061,0.3163997670472772,1.150333883611776
0.0188591773765062,0.0190252528995087,0.9999992539516036,7.241477398077044,0.3341464502557348,1.1471387585918107
0.0203098833285452,0.0189832348039159,0.9999991751021584,7.354171311658321,0.3514324162007653,1.143913784561945
0.0217605892805841,0.0189406224567687,0.9999990941807988,7.453224152146991,0.3682696253335303,1.1406661636504414
0.023211295232623,0.0188975503454106,0.9999990115455104,7.541428964763928,0.384669727614977,1.1374013305315516
0.024662001184662,0.0188541199953069,0.9999989275010276,7.620885937657612,0.4006440705748862,1.1341234402167664
0.0261127071367009,0.0188104089400666,0.9999988423026692,7.693188603016162,0.416203707161797,1.13083570519543
0.0275634130887399,0.0187664770154798,0.9999987561601916,7.7595575323965855,0.4313594033892414,1.12754063283812
0.0290141190407788,0.0187223708332915,0.999998669241516,7.820936561767645,0.4461216457835788,1.1242401954665484
0.0304648249928178,0.0186781270023107,0.999998581676234,7.878062412864133,0.4605006486385769,1.1209359541295232
0.0319155309448567,0.0186337744768999,0.9999984935588192,7.931515415542795,0.4745063610817485,1.1176291500062656
0.0333662368968957,0.0185893362900761,0.9999984049515088,7.981756751915712,0.4881484739573259,1.1143207728131577
0.0348169428489346,0.0185448308473314,0.9999983158868302,8.029156031342591,0.5014364265306237,1.111011612634347
0.0362676488009735,0.0185002729031636,0.999998226369762,8.074011879737602,0.5143794130184186,1.107702299641264
0.0377183547530125,0.0184556743058086,0.9999981363795314,8.116567442903165,0.5269863889498502,1.1043933348514452
0.0391690607050514,0.0184110442212779,0.9999980458710468,8.157003454742242,0.539266077362237,1.1010851141796096
0.0406197666570904,0.0183663886351503,0.9999979547759722,8.195396392398314,0.5512269748360821,1.0977779474125706
0.0420704726091293,0.0183217134431372,0.9999978630034434,8.23187202937044,0.5628773573734345,1.0944720733035305
0.0435211785611683,0.0182770234911495,0.9999977704404278,8.266545161705539,0.5742252861236615,1.091167671671506
0.0449718845132072,0.0182323225827272,0.9999976769517224,8.299512480428273,0.5852786129605869,1.0878648731688971
0.0464225904652461,0.0181876136554885,0.999997582379578,8.330855896702621,0.5960449859148429,1.084563767218324
0.0478732964172851,0.0181428989236039,0.9999974865429324,8.360645180072233,0.6065318544651859,1.0812644085009298
0.049324002369324,0.0180981799935552,0.9999973892362276,8.388940064972159,0.6167464746924226,1.0779668222901642
0.050774708321363,0.0180534579587365,0.999997290227769,8.41579194288606,0.6266959142995118,1.0746710088590343
0.0522254142734019,0.0180087334771836,0.9999971892575816,8.441245229536817,0.6363870575012943,1.0713769471389512
0.0536761202254409,0.0179640068357607,0.9999970860346928,8.465338475640726,0.6458266097872276,1.06808459777036
0.0551268261774798,0.0179192780034108,0.9999969802337592,8.488105274104418,0.6550211025604085,1.0647939056562077
0.0565775321295188,0.0178745466755209,0.9999968714909276,8.50957500472012,0.6639768976560724,1.0615048021067977
0.0580282380815577,0.0178298123110287,0.9999967593987912,8.529773448425834,0.6727001917426854,1.0582172066470554
0.0594789440335966,0.0177850741635683,0.9999966435002644,8.548723296319993,0.6811970206086484,1.0549310285435065
0.0609296499856356,0.0177403313076936,0.9999965232811512,8.566444573327246,0.6894732633375572,1.0516461680974318
0.0623803559376745,0.0176955826610188,0.9999963981611192,8.582954992314761,0.6975346463748766,1.0483625177420903
0.0638310618897135,0.0176508270029554,0.9999962674827084,8.598270251268923,0.7053867474888087,1.0450799629750334
0.0652817678417524,0.0176060629905997,0.9999961304979,8.612404283646098,0.7130349996280464,1.041798383151046
0.0667324737937914,0.0175612891722225,0.9999959863516196,8.625369470047064,0.7204846946790304,1.0385176521568262
0.0681831797458303,0.0175165039987349,0.999995834061366,8.637176817812199,0.7277409871252362,1.0352376389848954
0.0696338856978693,0.017471705833437,0.999995672491885,8.647836113900727,0.7348088976109357,1.0319582082213354
0.0710845916499082,0.0174268929603027,0.9999955003234542,8.657356055432583,0.7416933164117835,1.0286792204595374
0.0725352976019471,0.0173820635910154,0.999995316011839,8.665744361482087,0.7483990068144799,1.025400532650192
0.0739860035539861,0.0173372158709278,0.999995117737276,8.673007869076775,0.7549306084076576,1.0221219983961094
0.075436709506025,0.017292347884097,0.9999949033388288,8.679152615840513,0.7612926402860103,1.0188434681991396
0.076887415458064,0.0172474576575171,0.9999946702289976,8.684183911302767,0.7674895041695359,1.0155647896653173
0.0783381214101029,0.0172025431646552,0.9999944152813088,8.688106398555508,0.7735254874395852,1.0122858076734391
0.0797888273621419,0.017157602328378,0.999994134680364,8.690924107660706,0.7794047660931733,1.0090063645114875
0.0812395333141808,0.0171126330233451,0.9999938237188848,8.692640501982895,0.7851314076167052,1.005726299984666
0.0826902392662198,0.017067633078936,0.9999934765185402,8.693258573934122,0.7907093737798266,1.002445451498238
0.0841409452182587,0.0170226007460161,0.9999930856413208,8.692806552907504,0.7961425233494975,0.9991636541560324
0.0855916511702976,0.0169775326621679,0.999992641541794,8.691208592301185,0.80143461472352,0.9958807630683116
0.0870423571223366,0.0169324265167847,0.999992131754004,8.688415426994567,0.8065893084814724,0.9925966752525118
0.0884930630743755,0.0168872809405029,0.9999915396680372,8.684428232764752,0.8116101698483197,0.9893112901048312
0.0899437690264145,0.016842094527383,0.9999908426467712,8.679247852388222,0.8165006710623012,0.98602450511995
0.0913944749784534,0.0167968658359614,0.9999900090139254,8.672874813361688,0.8212641936324532,0.9827362159451818
0.0928451809304924,0.0167515933901058,0.999988993035583,8.665309343367102,0.8259040304593402,0.9794463164239418
0.0942958868825313,0.0167062756796904,0.9999877261409033,8.656551383738194,0.8304233877704462,0.9761546986295064
0.0957465928345703,0.0166609111611079,0.9999861006246932,8.646600601137163,0.8348253867774076,0.9728612528899204
0.0971972987866092,0.0166154982576319,0.9999839370701344,8.635456397596274,0.8391130648671364,0.9695658678048192
0.0986480047386481,0.0165700353596395,0.9999809127293684,8.623117919005399,0.8432893759163033,0.9662684302548568
0.1000987106906871,0.0165245208247038,0.999976382648595,8.609584061999326,0.8473571887383858,0.96296882540441
0.101549416642726,0.0164789529775596,0.9999688438136404,8.594853478945318,0.8513192809273783,0.959666936698331
0.103000122594765,0.0164333301099506,0.9999537969164014,8.578924580439102,0.8551783189503309,0.9563626458539988
0.1044508285468039,0.0163876504805255,0.9999088611563756,8.561795541985747,0.8589367832473415,0.9530558328521948
0.1059015344988429,0.0163419256801646,0.7279651852671848,8.544196274969151,0.8625965088505619,0.9497463759475896
0.1073522404508818,0.0162961263572165,4.001807911818305e-05,8.524233600160391,0.8555759654792158,0.9464346601301458
0.1088029464029207,0.0162500018352191,1.7551210790020867e-05,8.486404609181594,0.8109624370132648,0.943123118143888
0.1102536523549597,0.0162038265794483,1.0135816362618472e-05,8.443899825881974,0.7686742203757282,0.93981424972034
0.1117043583069986,0.0161575997929881,6.554761534171316e-06,8.396083502450518,0.7285908412863461,0.936508898479708
0.1131550642590376,0.0161113212142303,4.508539683116121e-06,8.342219740196013,0.690597522956336,0.9332080987572208
0.1146057702110765,0.0160649913673638,3.2233967617850487e-06,8.281463502629842,0.654585354005752,0.9299131118870184
0.1160564761631155,0.0160186119135319,2.3664555246276744e-06,8.212853688939353,0.6204510621605225,0.9266254689067362
0.1175071821151544,0.0159721861431609,1.7712451223892869e-06,8.135310048285765,0.5880967431776327,0.923347020677544
0.1189578880671934,0.0159257196595509,1.3455585652231002e-06,8.047636189843631,0.5574295895933852,0.9200799964772064
0.1204085940192323,0.0158792213165676,1.034416630660454e-06,7.948531539316511,0.5283616288117975,0.9168270721741
0.1218592999712712,0.0158327044865571,8.03172646814377e-07,7.836615646979203,0.5008094729197167,0.9135914490966583
0.1233100059233102,0.0157861887460124,6.290409304476368e-07,7.710468598245005,0.4746940806674099,0.91037694464683
0.1247607118753491,0.0157397020721751,4.965245755719544e-07,7.568691169758064,0.4499405314195038,0.9071880955299548
0.1262114178273881,0.0156932836379337,3.947977277873516e-07,7.409987486533579,0.4264778106553875,0.9040302741368698
0.127662123779427,0.0156469872676157,3.161325337940308e-07,7.233270905268087,0.4042386065187232,0.9009098180519928
0.129112829731466,0.0156008855642447,2.549149375443175e-07,7.037790380191348,0.3831591168943604,0.8978341717935462
0.1305635356835049,0.0155550746327019,2.070075716444889e-07,6.823269616759906,0.3631788664943792,0.8948120386268913
0.1320142416355439,0.0155096792013236,1.6932521205882468e-07,6.590045333474551,0.3442405334494161,0.8918535385370265
0.1334649475875828,0.0154648577953046,1.3954477540396833e-07,6.339185089652263,0.326289784920674,0.8889703661388473
0.1349156535396218,0.0154208074622366,1.15902957539897e-07,6.072561296834072,0.3092751212692337,0.8861759394746634
0.1363663594916607,0.0153777674333829,9.705241542258053e-08,5.7928585215774335,0.2931477283409894,0.8834855275531894
0.1378170654436996,0.0153360210770472,8.19579292319147e-08,5.503497896819734,0.2778613374470551,0.8809163418418641
0.1392677713957386,0.0152958956151222,6.982041214044269e-08,5.208475599422234,0.2633720926404254,0.8784875762574366
0.1407184773477775,0.0152577593514566,6.00206828127193e-08,4.91212906499075,0.2496384249098632,0.8762203839459075
0.1421691832998165,0.0152220165267915,5.2077547204652096e-08,4.61885810949707,0.2366209329313264,0.8741377891640967
0.1436198892518554,0.0151891000932786,4.561648023751368e-08,4.332828983116754,0.2242822700357241,0.8722645436530851
0.1450705952038944,0.01518808823069,1.3120964762330466e-07,5.210004570273554,0.212587037069386,0.8706269210087288
0.145553287068599,0.0151836787709006,1.287156051612449e-07,5.0231319268260135,0.2088325206719294,0.8706269210063131
0.1460359789333035,0.0151792664395211,1.2626561450244317e-07,4.839553255439306,0.2051443162003037,0.8706269219377473
0.1465186707980081,0.0151748562240707,1.2385889544010266e-07,4.6594774645004176,0.2015212524593291,0.8706269229166056
0.1470013626627127,0.0151704529086906,1.2149468372423734e-07,4.483089431072873,0.1979621789393682,0.8706269239468563
0.1474840545274172,0.0151660611631177,1.191722286032332e-07,4.310554808422177,0.1944659654509794,0.8706269250328929
0.1479667463921218,0.0151616855245369,1.1689079258548509e-07,4.142019851306182,0.1910315017660243,0.8706269261795939
0.1484494382568263,0.0151573303811966,1.146496512052548e-07,3.9776114243142255,0.1876576972651123,0.8706269273923953
0.1489321301215309,0.0151529999578672,1.1244809279267845e-07,3.817437181849914,0.1843434805912729,0.8706269286773752
0.1494148219862355,0.0151486983031879,1.1028541824785443e-07,3.661585906355852,0.1810877993097445,0.8706269300413542
0.14989751385094,0.0151444292789192,1.0816094081894134e-07,3.5101279898275,0.1778896195737725,0.870626931492022
0.1503802057156446,0.0151401965510885,1.0607398588420369e-07,3.363116042555451,0.1747479257963089,0.8706269330380833
0.1508628975803492,0.0151360035829958,1.0402389073793934e-07,3.220585612357442,0.1716617203275117,0.870626934689445
0.1513455894450537,0.015131853630018,1.0201000438023309e-07,3.082555997284925,0.1686300231379393,0.8706269364574397
0.1518282813097583,0.0151277497361373,1.000316873104784e-07,2.949031134880552,0.1656518715073403,0.8706269383551122
0.1523109731744629,0.015123694732099,9.808831132462149e-08,2.820000551479189,0.162726319718941,0.8706269403975745
0.1527936650391674,0.0151196912350955,9.61792593160846e-08,2.695440355741985,0.1598524387591305,0.8706269426024641
0.153276356903872,0.0151157416498601,9.430392508034135e-08,2.5753142615433853,0.1570293160224521,0.8706269449905318
0.1537590487685766,0.0151118481710544,9.24617131231292e-08,2.4595746264495104,0.1542560550218027,0.8706269475864183
0.1542417406332811,0.0151080127868255,9.065203847231377e-08,2.3481634932943374,0.1515317751037529,0.8706269504196772
0.1547244324979857,0.0151042372834172,8.887432649345492e-08,2.2410136237453493,0.1488556111688939,0.8706269535261708
0.1552071243626903,0.0151005232507242,8.712801270919366e-08,2.138049514238764,0.1462267133971233,0.8706269569499957
0.1556898162273948,0.015096872088695,8.541254262268472e-08,2.039188386272493,0.1436442469777841,0.8706269607462004
0.1561725080920994,0.015093285014519,8.372737154549409e-08,1.9443411448497416,0.1411073918445687,0.8706269649847305
0.156655199956804,0.0150897630705864,8.207196443073586e-08,1.8534133010810223,0.1386153424151057,0.8706269697563211
0.1571378918215085,0.0150863071333221,8.044579571291919e-08,1.7663058581222422,0.1361673073351464,0.8706269751816318
0.1576205836862131,0.0150829179232274,7.884834915742234e-08,1.6829161651711488,0.1337625092272681,0.8706269814260096
0.1581032755509177,0.0150795960170435,7.727911772578125e-08,1.6031387561766512,0.1314001844440174,0.8706269887246457
0.1585859674156222,0.015076341864499,7.573760347113885e-08,1.5268662209076207,0.1290795828254126,0.8706269974283212
0.1590686592803268,0.0150731558169985,7.422331750144701e-08,1.4539902526591937,0.1267999674607289,0.8706270080939436
0.1595513511450313,0.0150700381944312,7.273578012763728e-08,1.3844033902155302,0.1245606144544917,0.870627021685251
0.1600340430097359,0.0150669895141334,7.127452167509135e-08,1.3180039289208207,0.1223608126966019,0.8706270400961613
0.1605167348744405,0.0150640118801858,6.983908717865308e-08,1.2547241252064492,0.1201998636365224,0.870627067912502
0.160999426739145,0.0150611813399379,6.842922520075572e-08,1.1960057674726092,0.1180770810614518,0.8706271220503083
0.1614821186038496,0.0150595412691007,6.704733874030972e-08,1.1624860156182697,0.1159917908784204,0.8706276622010799
0.1619648104685542,0.01505835296018,6.569599576761445e-08,1.1365007496616295,0.1139433309002772,0.8706353350552977
0.1624475023332587,0.0150574534939515,6.437532651594171e-08,1.113971940613716,0.1119310506354131,0.870652395841714
0.1629301941979633,0.0150568870239807,6.308547900979035e-08,1.095244125696123,0.109954311081153,0.870680426890486
0.1634128860626679,0.0150567249651928,6.182746894478692e-08,1.0809516039560436,0.1080124845208382,0.8707219178081353
0.1638955779273724,0.0150570819797465,6.060394094310694e-08,1.0721267929751264,0.1061049543245099,0.8707810283473388
0.164378269792077,0.0150581481178542,5.942111511496193e-08,1.070384240022926,0.1042311147531251,0.8708652884747852
0.1648609616567816,0.0150602224385299,5.8294269904565776e-08,1.0774369965580943,0.1023903707662657,0.8709900090982593
0.1653436535214861,0.0150636027923952,5.7258944319140136e-08,1.0896294242159283,0.1005821378333396,0.8711908353766765
0.1658263453861907,0.0150686727701786,5.6365026189958e-08,1.0931356227693063,0.0988058417483156,0.8715473281389984
0.1663090372508953,0.0150765978593927,5.564119292600903e-08,1.0858370140916938,0.0970609184476246,0.8721521879900399
0.1667917291155998,0.0150881830699162,5.5083730236035874e-08,1.0738860861518675,0.0953468138306499,0.8730413706890127
0.1672744209803044,0.0151036210104269,5.4677007554579396e-08,1.0607125088129463,0.0936629835831901,0.8742162443646124
0.167757112845009,0.0151228730686872,5.440517711146566e-08,1.0477236820383082,0.0920088930044022,0.8756687348010442
0.1682398047097135,0.0151458278694826,5.4254728563389166e-08,1.0354877163002212,0.0903840168370066,0.8773885443708161
0.1687224965744181,0.0151723521845452,5.421469216607624e-08,1.0242204636635197,0.0887878391005377,0.8793650866090473
0.1692051884391227,0.0152023086833141,5.427636135804761e-08,1.0139801065167595,0.087219852927542,0.8815880697179794
0.1696878803038272,0.0152355626828861,5.443295864560484e-08,1.004751080009164,0.0856795604026647,0.884047680486109
0.1701705721685318,0.0152719847925832,5.467934132087742e-08,0.9964831202472504,0.0841664724045728,0.886734632111682
0.1706532640332363,0.0153114518695344,5.501176352826141e-08,0.9891105368845196,0.0826801084506647,0.8896401610468404
0.1711359558979409,0.0153538472300685,5.542769102108664e-08,0.982562112291859,0.0812199965445178,0.8927560040224854
0.1716186477626455,0.0153990605209521,5.5925660810717996e-08,0.9767662871725928,0.0797856730260282,0.8960743677858263
0.17210133962735,0.0154469874358422,5.6505178214071873e-08,0.9716538641545456,0.0783766824241941,0.8995878969276803
0.1725840314920546,0.0154975293665884,5.716664520886808e-08,0.9671593592360156,0.0769925773124973,0.903289642185701
0.1730667233567592,0.0155505930342825,5.791131552144934e-08,0.9632216000144642,0.0756329181668385,0.907173030274294
0.1735494152214637,0.0156060901229022,5.8741273236950897e-08,0.959783900195216,0.07429727322598,0.9112318356659652
0.1740321070861683,0.0156639369270601,5.96594329027022e-08,0.956793997036342,0.0729852183544537,0.9154601544461092
0.1745147989508729,0.015724054019349,6.06695601300272e-08,0.954203859805318,0.07169633690789,0.919852380215407
0.1749974908155774,0.0157863659395125,6.177631264282085e-08,0.9519694327326172,0.0704302196007251,0.924403181943278
0.175480182680282,0.0158508009058846,6.298530263263042e-08,0.9500503499893276,0.0691864643762469,0.9291074836447316
0.1759628745449866,0.0159172905485697,6.430318221982959e-08,0.94840964479094,0.0679646762789358,0.933960445742438
0.1764455664096911,0.0159857696633303,6.573775485296686e-08,0.9470134654193316,0.066764467329063,0.9389574479760832
0.1769282582743957,0.0160561759848993,6.729811667637265e-08,0.9458308052761744,0.0655854563995042,0.9440940737268158
0.1774109501391003,0.0161284499783449,6.899483334814917e-08,0.9448332505996612,0.064427269094733,0.9493660956329244
0.1778936420038048,0.0162025346471107,7.08401596102957e-08,0.9439947473461388,0.0632895376319536,0.9547694623822842
0.1783763338685094,0.0162783753563945,7.284831125152144e-08,0.9432913874483906,0.0621719007243369,0.9603002865766684
0.178859025733214,0.0163559196706037,7.50358021696053e-08,0.942701213899622,0.0610740034663243,0.9659548335722938
0.1793417175979185,0.0164351172037067,7.742186332665157e-08,0.9422040436820118,0.0599954972209626,0.9717295112097136
0.1798244094626231,0.016515919481387,8.002896591589478e-08,0.941781307337834,0.0589360395092362,0.9776208603542852
0.1803071013273277,0.0165982798139959,8.288347863130689e-08,0.9414159038912762,0.0578952939013637,0.9836255461758702
