Time [s],Lmtc [m],STIM [ ],Fsee [N],Gamma [ ],Lcerel [ ]
0.0,0.0182740227910141,0.9999997376437532,0.573861115383941,0.0648828326739482,1.107425110447712
0.0009674964608776,0.0183031334594021,0.999999742379664,1.0614204395055484,0.0811438184861517,1.10742511044288
0.0019349929217552,0.0183340524353975,0.9999997470332256,1.742162137093534,0.0971220379606184,1.107425108951695
0.0029024893826328,0.0183650477920171,0.9999997516058604,2.59301068425842,0.1128224081917164,1.107425107013336
0.0038699858435104,0.0183947678443046,0.9999997560989052,3.567219599330435,0.1282497607692334,1.1074251039988852
0.004837482304388,0.018417642905887,0.9999997582818854,4.422646998587056,0.1434088432652362,1.1074250962503618
0.0058049787652656,0.0184290207957655,0.9999997538208568,4.9673838947021975,0.1583043206562669,1.1072760004852846
0.0067724752261432,0.0184339991691229,0.9999997417172332,5.463258340719206,0.17294077672304,1.106793922386193
0.0077399716870208,0.0184336905080888,0.999999723795438,5.905411348843502,0.1873227155203765,1.1060498315494391
0.0087074681478984,0.018429056055322,0.9999997010755364,6.294040628978749,0.2014545628126668,1.105099800405592
0.009674964608776,0.0184208929744168,0.9999996741815168,6.632295462170399,0.2153406674212965,1.1039871464872577
0.0106424610696536,0.0184098539898208,0.9999996435268076,6.92497222306867,0.2289853025557395,1.1027451776584536
0.0116099575305312,0.0183964687962595,0.9999996094040018,7.177513894046977,0.2423926671247328,1.1013995406726875
0.0125774539914088,0.0183811649444148,0.9999995720311006,7.395364053786612,0.2555668870262078,1.099970076340434
0.0135449504522864,0.0183642865084249,0.9999995315764724,7.583592756428531,0.2685120164155986,1.098472236844213
0.014512446913164,0.018346110058535,0.9999994881727652,7.746714038020722,0.2812320389525259,1.0969181506796557
0.0154799433740416,0.0183268581311465,0.9999994419248232,7.888636031601022,0.2937308690260469,1.0953174171507714
0.0164474398349192,0.0183067102307856,0.9999993929142286,8.012682102214955,0.3060123529587339,1.093677698410342
0.0174149362957968,0.0182858116671975,0.9999993412018824,8.121646481268582,0.3180802701898962,1.0920051617803397
0.0183824327566744,0.0182642805771059,0.9999992868294044,8.21786252428046,0.3299383344382706,1.0903048118474203
0.019349929217552,0.0182422134678806,0.9999992298197924,8.30327155737893,0.3415901948445166,1.088580741387428
0.0203174256784297,0.0182196895805149,0.9999991701775832,8.379486373608499,0.353039437093859,1.086836322319486
0.0212849221393073,0.0181967743208383,0.9999991078886552,8.447846977243707,0.3642895845192083,1.085074352125956
0.0222524186001849,0.0181735219607018,0.999999042919742,8.509468095391561,0.3753440991850971,1.0832971669943312
0.0232199150610625,0.0181499777693316,0.9999989752176862,8.565278932503023,0.3862063829527581,1.08150672992028
0.0241874115219401,0.0181261797004496,0.9999989047084372,8.616056051502659,0.3968797785266694,1.0797046998345297
0.0251549079828177,0.0181021597328877,0.9999988312957772,8.662450377950965,0.4073675704828822,1.0778924862422248
0.0261224044436953,0.0180779449404232,0.9999987548597468,8.705009288346893,0.4176729862794458,1.0760712927202196
0.0270899009045729,0.018053558349427,0.9999986752547244,8.744194642994218,0.4277991972492347,1.0742421517830432
0.0280573973654505,0.0180290196296653,0.9999985923071076,8.780397502120666,0.4377493195754772,1.072405953015118
0.0290248938263281,0.0180043456533943,0.9999985058125196,8.813950143494832,0.4475264152502785,1.0705634659134895
0.0299923902872057,0.0179795509500497,0.9999984155324558,8.845135890750054,0.4571334930164307,1.068715358547897
0.0309598867480833,0.0179546480778067,0.9999983211902598,8.874197167569376,0.4665735092927843,1.0668622128922098
0.0319273832089609,0.0179296479286519,0.9999982224662888,8.901342114065168,0.47584936908346,1.065004537490536
0.0328948796698385,0.0179045599800326,0.9999981189920988,8.92675003682399,0.4849639268711636,1.063142777976476
0.0338623761307161,0.0178793925033848,0.9999980103434316,8.950575911328398,0.4939199874948679,1.0612773258533283
0.0348298725915937,0.0178541527376971,0.9999978960317284,8.972954112870335,0.5027203070121098,1.0594085258578891
0.0357973690524713,0.0178288470345961,0.9999977754938209,8.994001517834192,0.5113675935461449,1.0575366821646095
0.0367648655133489,0.0178034809801338,0.9999976480793464,9.013820089779877,0.5198645081181913,1.0556620636355818
0.0377323619742265,0.017778059497433,0.999997513035306,9.032499042774354,0.5282136654649829,1.0537849082816308
0.0386998584351042,0.0177525869335382,0.9999973694869976,9.050116656816602,0.5364176348418364,1.0519054270681782
0.0396673548959818,0.0177270671331815,0.9999972164143158,9.06674180609232,0.544478940811425,1.0500238071744763
0.0406348513568594,0.0177015035016625,0.9999970526220728,9.082435249472397,0.5524000640184197,1.048140214794897
0.041602347817737,0.0176758990586396,0.999996876702524,9.09725072356686,0.5601834419501474,1.0462547975549965
0.0425698442786146,0.0176502564843019,0.9999966869876264,9.111235871312388,0.5678314696833681,1.0443676866022802
0.0435373407394922,0.0176245781591306,0.99999648148761,9.12443303315011,0.5753465006172361,1.0424789984212317
0.0445048372003698,0.0175988661982499,0.9999962578110796,9.13687992305668,0.5827308471924499,1.040588836413771
0.0454723336612474,0.0175731224811915,0.9999960130598504,9.148610207800363,0.5899867815965031,1.0386972922794908
0.046439830122125,0.0175473486777628,0.9999957436886988,9.15965400462757,0.5971165364548461,1.0368044472243907
0.0474073265830026,0.0175215462705914,0.999995445315594,9.170038310000516,0.6041223055075895,1.0349103730222664
0.0483748230438802,0.0174957165748258,0.9999951124607576,9.179787369891809,0.6110062442711397,1.0330151329490986
0.0493423195047578,0.0174698607553976,0.9999947381813684,9.188923000405602,0.6177704706837908,1.0311187826076578
0.0503098159656354,0.0174439798421831,0.9999943135497572,9.197464866066198,0.6244170657337396,1.0292213706569353
0.051277312426513,0.0174180747433538,0.999993826890886,9.20543072193562,0.6309480740671061,1.0273229394588392
0.0522448088873906,0.0173921462571583,0.9999932626387882,9.212836624745206,0.6373655045721204,1.025423525652765
0.0532123053482682,0.0173661950823437,0.9999925995696788,9.219697117415595,0.6436713309332666,1.023523160667153
0.0541798018091458,0.0173402218273926,0.9999918079757686,9.22602539066382,0.6498674921450639,1.021621871175825
0.0551472982700234,0.0173142270187283,0.999990844956646,9.231833424831118,0.6559558929677718,1.0197196795058372
0.056114794730901,0.0172882111080159,0.9999896461828076,9.237132114588684,0.6619384042932905,1.0178166040026686
0.0570822911917787,0.0172621744786724,0.9999881106076576,9.241931378773796,0.6678168633614733,1.0159126593577712
0.0580497876526563,0.0172361174516797,0.9999860699125288,9.24624025725445,0.6735930737068353,1.014007856902869
0.0590172841135339,0.017210040290785,0.999983221346298,9.250066996395685,0.6792688045748647,1.0121022048748534
0.0599847805744115,0.017183943207156,0.9999789600324092,9.25341912436592,0.6848457891806249,1.0101957086546742
0.0609522770352891,0.0171578263635519,0.9999718768125684,9.256303517135876,0.6903257200816146,1.008288370983376
0.0619197734961667,0.0171316898780701,0.999957755828188,9.25872645597324,0.6957102358990528,1.0063801921585165
0.0628872699570443,0.017105533827769,0.9999156561544992,9.260693689707546,0.7010008734498525,1.0044711702159457
0.0638547664179219,0.0170793851977153,0.5670274713157193,9.263747053073956,0.706198778683398,1.002561301116519
0.0648222628787995,0.0170531549352046,3.84479449552522e-05,9.262296538883142,0.7013158046235921,1.0006512389026363
0.0657897593396771,0.0170266613754805,1.7639869471132856e-05,9.244365462148927,0.6767103244181123,0.998743062584454
0.0667572558005547,0.0170001712589319,1.071215150177108e-05,9.22384609164927,0.6529674505531102,0.9968384746471972
0.0677247522614323,0.0169736860195345,7.300584673538493e-06,9.200485159024929,0.6300574036390586,0.9949379155825512
0.0686922487223099,0.0169472074876202,5.299856875778739e-06,9.17400865765102,0.6079510855137104,0.9930418847338351
0.0696597451831875,0.0169207379008826,4.003748908555023e-06,9.144117596486192,0.5866203451180186,0.991150947353635
0.0706272416440651,0.0168942799877073,3.1085964790723783e-06,9.11048733276258,0.5660379943546813,0.9892657425289996
0.0715947381049427,0.0168678370670719,2.4623120338233474e-06,9.072767336306612,0.5461777884249135,0.9873869919588116
0.0725622345658203,0.0168414131685312,1.9803582067921684e-06,9.030581551272618,0.5270143980491276,0.9855155096525756
0.0735297310266979,0.0168150131759832,1.6120374692031558e-06,8.983529532770557,0.5085233797140842,0.9836522126157295
0.0744972274875755,0.0167886429992685,1.3251360566617391e-06,8.93118855615761,0.4906811457811976,0.9817981325811228
0.0754647239484531,0.0167623097779836,1.0982331337413312e-06,8.873116914656043,0.4734649351048607,0.9799544288376358
0.0764322204093307,0.0167360221221041,9.165540359327886e-07,8.80885863145425,0.4568527844118437,0.9781224021937158
0.0773997168702083,0.0167097903940229,7.695980580570462e-07,8.737949810571923,0.4408235005394108,0.9763035100947628
0.0783672133310859,0.0166836270363224,6.497137681143885e-07,8.659926830822853,0.4253566335642886,0.97449938288738
0.0793347097919635,0.0166575469488889,5.512078279313705e-07,8.574336542873331,0.4104324508244772,0.9727118411890666
0.0803022062528411,0.0166315679177085,4.6976790972774206e-07,8.48074855427788,0.3960319118212909,0.970942914277378
0.0812697027137187,0.0166057110957235,4.0207770796808905e-07,8.37876957595191,0.3821366439817685,0.9691948593562112
0.0822371991745962,0.016580001533344,3.4555336196081894e-07,8.26805965252556,0.3687289192580041,0.967470181487221
0.0832046956354738,0.0165544687525168,2.981588509354041e-07,8.14834990912089,0.3557916315382918,0.9657716538900806
0.0841721920963514,0.0165291473536413,2.582740750931131e-07,8.019461224962427,0.3433082748443728,0.9641023382156404
0.085139688557229,0.0165040776391731,2.2459888599085895e-07,7.881323004301417,0.3312629222890498,0.9624656042812236
0.0861071850181066,0.0164793062317268,1.960821455540997e-07,7.733990980746125,0.3196402057687524,0.96086514862884
0.0870746814789842,0.0164548866582934,1.7186852959669114e-07,7.577662794268977,0.3084252963661437,0.9593050111287688
0.0880421779398618,0.0164308798664362,1.5125812006226537e-07,7.412689959321202,0.2976038854384762,0.9577895887092136
0.0890096744007394,0.0164073546338135,1.3367535314717358e-07,7.239584837587022,0.2871621663680874,0.9563236451579968
0.089977170861617,0.0163843878299743,1.1864490617624136e-07,7.059021374029445,0.2770868169521275,0.954912315829702
0.0909446673224946,0.0163620644899843,1.0577279571893769e-07,6.871828668838293,0.2673649824093369,0.9535611060217912
0.0919121637833722,0.0163404776637462,9.473143548051625e-08,6.678976934305722,0.2579842589824039,0.9522758817813312
0.0928796602442498,0.0163197280131417,8.52477363219291e-08,6.481555984306558,0.2489326781151445,0.9510628519956598
0.0938471567051274,0.0162999231407337,7.709356839675887e-08,6.280747045922395,0.2401986911844426,0.9499285408191676
0.094814653166005,0.0162811766467162,7.007807690220834e-08,6.077789251644491,0.2317711547675692,0.9488797497672766
0.0957821496268826,0.0162636069208589,6.404146782148074e-08,5.873942526214446,0.2236393164261586,0.9479235090440988
0.0967496460877602,0.0162740227910136,1.417030906787553e-07,6.923646450097721,0.2157928009887679,0.9470670175515784
0.0971523333789177,0.0162703658738633,1.3946451717189536e-07,6.744530132022055,0.2126086619699036,0.9470670175495683
0.0975550206700753,0.0162666823060366,1.372589782731669e-07,6.566481228805984,0.209471508812633,0.9470670180132624
0.0979577079612328,0.0162629750857771,1.3508598481978526e-07,6.389693741556986,0.2063806481831611,0.9470670184929988
0.0983603952523903,0.016259247172842,1.329450565684893e-07,6.214352085937176,0.2033353969786803,0.9470670189897794
0.0987630825435478,0.0162555015541965,1.308357203626858e-07,6.0406344320994405,0.2003350821763993,0.9470670195046852
0.0991657698347053,0.0162517412332862,1.2875751002787844e-07,5.868712028147271,0.1973790406848006,0.9470670200388792
0.0995684571258628,0.0162479692194009,1.2670996626864098e-07,5.698748584835399,0.194466619197092,0.9470670205936168
0.0999711444170203,0.0162441885172115,1.2469263656711253e-07,5.530899725548992,0.1915971740468215,0.947067021170253
0.1003738317081778,0.016240402116559,1.2270507508299178e-07,5.365312504662656,0.1887700710656216,0.9470670217702556
0.1007765189993354,0.016236612982567,1.2074684255500944e-07,5.202124996428372,0.1859846854430542,0.9470670223952148
0.1011792062904929,0.0162328240461458,1.1881750620385678e-07,5.041465955598888,0.1832404015885228,0.9470670230468582
0.1015818935816504,0.0162290381949466,1.1691663963654919e-07,4.883454550072394,0.1805366129952219,0.9470670237270664
0.1019845808728079,0.0162252582648206,1.1504382275220409e-07,4.728200164967218,0.1778727221060949,0.9470670244378874
0.1023872681639654,0.0162214870318276,1.1319864164921313e-07,4.575802276712513,0.1752481401817701,0.947067025181563
0.1027899554551229,0.0162177272048311,1.1138068853378837e-07,4.426350394985568,0.172662287170444,0.947067025960546
0.1031926427462804,0.0162139814187108,1.095895616298629e-07,4.279924069651047,0.1701145915796866,0.9470670267775316
0.103595330037438,0.0162102522282151,1.0782486509032797e-07,4.136592959264611,0.1676044903501369,0.9470670276354864
0.1039980173285955,0.0162065421024658,1.0608620890958576e-07,3.9964169572026274,0.1651314287310624,0.9470670285376874
0.104400704619753,0.016202853420125,1.0437320883740262e-07,3.85944637107038,0.162694860157756,0.9470670294877644
0.1048033919109105,0.0161991884652229,1.0268548629404364e-07,3.7257221507255456,0.16029424613074,0.9470670304897512
0.105206079202068,0.0161955494236402,1.0102266828667208e-07,3.595276160028042,0.1579290560967548,0.9470670315481476
0.1056087664932255,0.0161919383802351,9.938438732699937e-08,3.468131487290432,0.1555987673315024,0.9470670326679927
0.106011453784383,0.016188357316595,9.777028135016913e-08,3.344302789347112,0.1533028648241203,0.9470670338549526
0.1064141410755405,0.0161848081093935,9.617999363486437e-08,3.223796664181754,0.1510408411633607,0.9470670351154268
0.1068168283666981,0.016181292529326,9.46131727246242e-08,3.106612047141338,0.1488121964254486,0.9470670364566808
0.1072195156578556,0.0161778122405941,9.306947235036328e-08,2.99274062591638,0.1466164380635951,0.9470670378870074
0.1076222029490131,0.0161743688009093,9.154855135408737e-08,2.88216726966986,0.1444530807991411,0.9470670394159276
0.1080248902401706,0.0161709636619805,9.00500736138042e-08,2.7748704679469585,0.1423216465143068,0.9470670410544434
0.1084275775313281,0.0161675981704526,8.857370796963672e-08,2.670822775283788,0.1402216641465244,0.9470670428153616
0.1088302648224856,0.0161642735692602,8.71191281511518e-08,2.5699912577523243,0.1381526695843302,0.9470670447137066
0.1092329521136431,0.0161609909993638,8.568601270593668e-08,2.472337938024374,0.136114205564792,0.9470670467672644
0.1096356394048007,0.0161577515018349,8.427404492947481e-08,2.37782023590899,0.1341058215724505,0.9470670489972968
0.1100383266959582,0.0161545560202636,8.288291279640822e-08,2.286391401720185,0.1321270737397528,0.9470670514295118
0.1104410139871157,0.0161514054034639,8.151230889333202e-08,2.198000940278055,0.1301775247489542,0.9470670540953908
0.1108437012782732,0.0161483004084683,8.016193035336213e-08,2.1125950238729945,0.1282567437354674,0.9470670570340516
0.1112463885694307,0.0161452417038174,7.883147879288655e-08,2.0301168932060394,0.1263643061926385,0.9470670602949366
0.1116490758605882,0.0161422298731914,7.752066025121857e-08,1.9505072463349464,0.124499793877928,0.9470670639417872
0.1120517631517457,0.016139265419502,7.622918513446166e-08,1.873704617413631,0.122662794720476,0.947067068058743
0.1124544504429033,0.0161363487697261,7.495676816610817e-08,1.7996457505390708,0.1208529027300317,0.9470670727600768
0.1128571377340608,0.0161334802811474,7.37031283495627e-08,1.7282659821109303,0.1190697179072264,0.9470670782065274
0.1132598250252183,0.0161306602506854,7.246798895424101e-08,1.6594996662735957,0.1173128461551711,0.9470670846344238
0.1136625123163758,0.01612788893206,7.125107755457044e-08,1.593280742101511,0.1155818991923575,0.9470670924118746
0.1140651996075333,0.0161251665766592,7.005212620832535e-08,1.5295437749328529,0.1138764944668456,0.9470671021590488
0.1144678868986908,0.0161224935665066,6.887087209695959e-08,1.468226917247661,0.1121962550717167,0.947067115046144
0.1148705741898483,0.0161198710958858,6.7707060442632e-08,1.4092865259004663,0.110540809661774,0.9470671337155644
0.1152732614810058,0.0161173138361332,6.656048608348019e-08,1.3529701395424532,0.1089097923714733,0.9470671665183032
0.1156759487721634,0.0161155574854362,6.54330689613743e-08,1.314925521974055,0.1073028427340636,0.9470672946737968
0.1160786360633209,0.0161144145277067,6.432785846311679e-08,1.289312545519753,0.105719605601954,0.9470713054974872
0.1164813233544784,0.0161134762531365,6.324581138262323e-08,1.2663258739768213,0.1041597310682387,0.9470820233967594
0.1168840106456359,0.0161127605248202,6.21868522242204e-08,1.2460473283783169,0.1026228743893334,0.9471002408376124
0.1172866979367934,0.016112299017757,6.115132016560218e-08,1.2287578254273106,0.1011086959087691,0.9471270671049083
0.1176893852279509,0.0161121380453904,6.014020637221453e-08,1.214888590132312,0.0996168609821316,0.9471641459478148
0.1180920725191084,0.0161123466179184,5.9155600616509875e-08,1.2050876523173883,0.0981470399031119,0.94721401086044
0.118494759810266,0.0161130309426414,5.820166267805537e-08,1.2003249905752549,0.0966989078306547,0.947280785669027
0.1188974471014235,0.0161143568949825,5.728694707758805e-08,1.2019359288523692,0.0952721447171963,0.9473717157309204
0.119300134392581,0.0161165605508438,5.643011553673934e-08,1.2108216010034476,0.0938664352379952,0.9475008674259794
0.1197028216837385,0.0161198581249923,5.5669151681086e-08,1.2230261068624844,0.0924814687215902,0.947698187173317
0.120105508974896,0.0161245329354594,5.505473780657685e-08,1.2278515735762945,0.0911169390814212,0.9480219749065396
0.1205081962660535,0.0161313621370964,5.462004675621665e-08,1.2229038116509112,0.0897725447483601,0.9485371415069934
0.120910883557211,0.0161409784892609,5.436944927710565e-08,1.2127489721152276,0.0884479886037923,0.9492738726198912
0.1213135708483686,0.0161536042627707,5.4294184745524825e-08,1.2006009404081197,0.0871429779135192,0.9502371834822596
0.1217162581395261,0.016169263508732,5.4383809608506545e-08,1.187996061875515,0.0858572242628664,0.9514234519032836
0.1221189454306836,0.0161879055944086,5.4629634985302026e-08,1.175646037936441,0.0845904434929196,0.9528264628923114
0.1225216327218411,0.0162094520133413,5.502545662888942e-08,1.1638812266843768,0.083342355637751,0.9544392921128744
0.1229243200129986,0.0162338144483013,5.5567585102564846e-08,1.1528475936150522,0.0821126848625835,0.9562549447325336
0.1233270073041561,0.0162609022960381,5.625473043745896e-08,1.1425973675973808,0.0809011594028677,0.95826659158848
0.1237296945953136,0.0162906260005981,5.708789751225193e-08,1.1331334205645898,0.0797075115042558,0.9604676586098592
0.1241323818864711,0.0163228985696183,5.807033814227782e-08,1.1244322731931249,0.0785314773634603,0.9628518571170294
0.1245350691776287,0.0163576362439022,5.920757445548837e-08,1.1164565910393554,0.0773727970699841,0.9654131885201356
0.1249377564687862,0.0163947587500234,6.05075005317957e-08,1.1091622161059922,0.0762312145487112,0.9681459374809368
0.1253404437599437,0.0164341893397676,6.19805697876225e-08,1.102502219066267,0.0751064775033461,0.971044659887905
0.1257431310511012,0.0164758547187006,6.364007949549908e-08,1.096429262207357,0.0739983373606903,0.9741041686772288
0.1261458183422588,0.016519684917605,6.55025699059888e-08,1.090896973808235,0.072906549215745,0.9773195190061078
