Time [s],Lmtc [m],STIM [ ],Fsee [N],Gamma [ ],Lcerel [ ]
0.0,0.0196554012612612,0.9999998639467776,1.5875147686117324,0.0923300200934478,1.2042042355379052
0.0014662922492499,0.0196724022742314,0.999999853624954,2.34644450878636,0.1161435281105551,1.2033283486064836
0.0029325844984998,0.0196663496039265,0.9999998327549356,3.076392503354596,0.1393322677565303,1.2011587038894591
0.0043988767477498,0.0196451027627427,0.9999998034720085,3.7216934500599375,0.1619126300963937,1.198246851687441
0.0058651689969997,0.0196136342301628,0.9999997668241032,4.265029062491203,0.1839005762173351,1.1948947733149629
0.0073314612462496,0.0195750528593836,0.99999972367508,4.707949201548538,0.2053116484810289,1.1912688557958384
0.0087977534954996,0.0195315126015263,0.9999996748206436,5.064924968204069,0.2261609815044334,1.1874668825669894
0.0102640457447495,0.0194845084036982,0.9999996210056982,5.353548804673568,0.2464633128555398,1.1835487614122886
0.0117303379939994,0.0194350708486281,0.999999562921193,5.589651720481687,0.2662329934689643,1.1795525852030126
0.0131966302432494,0.0193839106449657,0.9999995011972532,5.785897420044543,0.285483997788196,1.1755034057268203
0.0146629224924993,0.0193315212241251,0.9999994363983002,5.951891538192266,0.3042299336415732,1.1714181912903057
0.0161292147417492,0.0192782488227051,0.9999993690212784,6.09475254115407,0.3224840518590269,1.16730872707572
0.0175955069909992,0.0192243394294614,0.9999992994965544,6.219715045301783,0.3402592556364744,1.1631833710629564
0.0190617992402491,0.0191699700641117,0.9999992281906974,6.330631280755948,0.3575681096545539,1.159048151941851
0.0205280914894991,0.0191152696888496,0.9999991554104052,6.43035177356954,0.3744228489581921,1.1549074762448606
0.021994383738749,0.0190603333106139,0.9999990814069912,6.521002982325881,0.3908353876033145,1.1507645962028463
0.0234606759879989,0.0190052316022485,0.999999006381023,6.604186320843367,0.4068173270768182,1.1466219268883084
0.0249269682372489,0.0189500175527153,0.9999989304868204,6.681120051657716,0.4223799644957601,1.142481265938224
0.0263932604864988,0.0188947311267756,0.9999988538366428,6.752740557490202,0.437534300591551,1.1383439487987188
0.0278595527357487,0.0188394025747126,0.9999987765044512,6.819774966869987,0.4522910474847886,1.1342109603664003
0.0293258449849987,0.018784054814644,0.999998698529188,6.882793597593414,0.4666606362562065,1.1300830165595932
0.0307921372342486,0.0187287051693141,0.999998619917549,6.942248133576233,0.4806532243190829,1.1259606247787737
0.0322584294834986,0.0186733666477247,0.9999985406462396,6.998499658049711,0.4942787025982977,1.1218441293025885
0.0337247217327485,0.0186180489017598,0.999998460663714,7.051839422205616,0.5075467025210999,1.117733745772675
0.0351910139819984,0.0185627589479167,0.999998379891407,7.102504369340361,0.5204666028245133,1.1136295876668203
0.0366573062312484,0.0185075017172894,0.9999982982244578,7.150688840912075,0.533047536184175,1.1095316868152951
0.0381235984804983,0.01845228047859,0.999998215531923,7.196553479184226,0.5452983956692806,1.1054400094368109
0.0395898907297482,0.0183970968950378,0.9999981316564708,7.240218376757396,0.5572278410281829,1.1013544687686032
0.0410561829789982,0.0183419491990654,0.9999980464135304,7.281662895559855,0.5688443048090756,1.0972749350819315
0.0425224752282481,0.0182868367467225,0.999997959589864,7.320948833391209,0.5801559983200711,1.093201243672135
0.043988767477498,0.018231758844551,0.9999978709415024,7.358157360058707,0.5911709174328764,1.08913320126637
0.045455059726748,0.0181767142078274,0.9999977801909748,7.393357891909339,0.6018968482341458,1.0850705911855023
0.0469213519759979,0.0181217010632871,0.9999976870237286,7.426610114204913,0.6123413725284977,1.0810131775178975
0.0483876442252478,0.0180667172319077,0.9999975910836066,7.457965600127743,0.6225118731970585,1.076960708504166
0.0498539364744978,0.0180117601958968,0.9999974919672052,7.487469114821993,0.6324155394152999,1.0729129192877942
0.0513202287237477,0.0179568271530823,0.9999973892168864,7.515159671893405,0.6420593717338379,1.0688695341530865
0.0527865209729976,0.0179019150611922,0.9999972823121456,7.541071394134736,0.6514501870257458,1.064830268346225
0.0542528132222476,0.0178470206739701,0.9999971706589468,7.565234218482685,0.6605946233038454,1.0607948295555154
0.0557191054714975,0.0177921405706595,0.9999970535765164,7.587674476315609,0.6694991444113331,1.0567629191115393
0.0571853977207474,0.017737271180071,0.9999969302809224,7.608415373428015,0.6781700445889938,1.0527342329559588
0.0586516899699974,0.0176824088001998,0.999996799864547,7.627477388829268,0.6866134529221631,1.0487084624182912
0.0601179822192473,0.0176275496141689,0.9999966612702542,7.644878607514165,0.6948353376704789,1.044685294832494
0.0615842744684972,0.017572689703121,0.9999965132586238,7.660634999252681,0.7028415104833611,1.0406644140192651
0.0630505667177472,0.0175178250565633,0.9999963543660276,7.674760653028793,0.7106376305040328,1.0366455006551978
0.0645168589669971,0.017462951580574,0.9999961828504508,7.687267974863308,0.7182292083647723,1.0326282325460945
0.0659831512162471,0.0174080651042038,0.999995996620703,7.698167855262543,0.7256216100759244,1.028612284818643
0.067449443465497,0.0173531613843434,0.999995793142787,7.7074698113521665,0.7328200608110189,1.024597330042126
0.0689157357147469,0.0172982361092811,0.9999955693143736,7.715182107814109,0.7398296485901315,1.020583038289782
0.0703820279639969,0.0172432849011314,0.999995321293968,7.721311859992098,0.7466553278633143,1.016569077147717
0.0718483202132468,0.0171883033172859,0.9999950442644928,7.72586512192637,0.7533019229955271,1.0125551116778824
0.0733146124624967,0.0171332868510089,0.999994732099933,7.728846961590207,0.7597741316539393,1.0085408043404545
0.0747809047117467,0.0170782309312785,0.99999437688529,7.73026152520528,0.7660765280976146,1.0045258148799858
0.0762471969609966,0.0170231313206778,0.999993968209683,7.730132862970048,0.7722135663682977,1.0005098001788673
0.0777134892102465,0.0169679831171373,0.9999934921084582,7.728441490355367,0.7781895833789353,0.9964924302465455
0.0791797814594965,0.0169127796730458,0.9999929294047486,7.725017277870838,0.7840088018934198,0.9924734593833222
0.0806460737087464,0.0168575179823487,0.9999922529958662,7.7198583102592435,0.7896753333846427,0.9884526727734612
0.0821123659579963,0.0168021950328669,0.9999914232742652,7.7129650116248465,0.7951931807463716,0.9844298527023844
0.0835786582072463,0.0167468077509166,0.9999903799669012,7.704337230751565,0.8005662408138454,0.9804047786030908
0.0850449504564962,0.0166913530009436,0.9999890266249688,7.693974262528263,0.8057983066041413,0.9763772270069964
0.0865112427057461,0.016635827584849,0.9999871986778646,7.681874865913638,0.8108930690908406,0.9723469714798346
0.0879775349549961,0.0165802282410249,0.9999845903744784,7.668037278715844,0.8158541180940123,0.9683137825435466
0.089443827204246,0.0165245516431126,0.999980562033597,7.652459229251929,0.8206849412301082,0.964277427585023
0.0909101194534959,0.0164687943984861,0.999973512960948,7.635137944510621,0.8253889178325039,0.9602376707525236
0.0923764117027459,0.0164129530464548,0.999957992603682,7.616070153599926,0.8299692965796284,0.9561942728410672
0.0938427039519958,0.0163570240564739,0.9998956067606992,7.595252098715681,0.834429097919308,0.9521469911707588
0.0953089962012457,0.0163010568749883,8.910496127124355e-05,7.57541496963312,0.8387702557604235,0.9480955794920884
0.0967752884504957,0.0162446129139365,1.9682115210902412e-05,7.532638014963137,0.7945783826162414,0.944041943227634
0.0982415806997456,0.0161880579105195,9.734432217010538e-06,7.484225751152984,0.752711441862313,0.9399883972624116
0.0997078729489955,0.016131382781358,5.866424926278664e-06,7.429452755252947,0.713050060378681,0.9359353944123314
0.1011741651982455,0.0160745776691461,3.873484655971134e-06,7.367478292597435,0.6754783415768254,0.93188352418858
0.1026404574474954,0.0160176319989433,2.695556892426129e-06,7.297338033884658,0.639886274225206,0.927833538667728
0.1041067496967453,0.0159605346007751,1.9408521712523093e-06,7.217938264518499,0.6061695880278039,0.9237863827294288
0.1055730419459953,0.0159032739621364,1.431272383138496e-06,7.128055782537802,0.5742294863309674,0.9197432294549376
0.1070393341952452,0.0158458386724924,1.0744544741387271e-06,7.026346598796566,0.5439723689621273,0.915705521451778
0.1085056264444951,0.015788218139593,8.179134489632532e-07,6.911367277029302,0.5153095629305917,0.9116750189422592
0.1099719186937451,0.0157304036766148,6.297637878821398e-07,6.781613360826052,0.488157064902142,0.9076538555280282
0.111438210942995,0.0156723900760294,4.896293752263921e-07,6.635579542910206,0.462435296227513,0.9036446026109936
0.1129045031922449,0.0156141777950732,3.8396804144214453e-07,6.471845656625032,0.4380688704001153,0.8996503435048876
0.1143707954414949,0.0155557758706939,3.034965125099345e-07,6.289190737844731,0.4149863725206878,0.8956747582993161
0.1158370876907448,0.015497205648849,2.416915858032549e-07,6.086733853380999,0.3931201502468705,0.8917222205206354
0.1173033799399947,0.015438505344007,1.9387706404257606e-07,5.864094867648076,0.3724061156792425,0.8877979065428167
0.1187696721892447,0.0153797353337994,1.566459190672753e-07,5.621561094272348,0.3527835576384124,0.8839079184985483
0.1202359644384946,0.0153209839454451,1.2748263413524498e-07,5.360237991032631,0.334194963803294,0.8800594210890647
0.1217022566877445,0.0152623733269125,1.0450951097987108e-07,5.0821559031390695,0.316585852201503,0.8762607922021393
0.1231685489369945,0.0152040648625693,8.63121958444612e-08,4.790303380556404,0.2999046115656163,0.8725217868311078
0.1246348411862444,0.0151462635621034,7.181722698073899e-08,4.48856380435047,0.284102350092304,0.868853714258603
0.1261011334354944,0.0150892210170938,6.020455939907296e-08,4.1815473969156445,0.2691327521643013,0.8652696321927491
0.1275674256847443,0.0150332369830026,5.08441075786297e-08,3.87433302054296,0.2549519426174835,0.8617845741466676
0.1290337179339942,0.0149786604606104,4.3249146401520814e-08,3.5721557936698973,0.2415183581567357,0.8584158582345787
0.1305000101832442,0.0149258921789773,3.7041918263695454e-08,3.280083843532387,0.2287926255448147,0.8551835878467063
0.1319663024324941,0.01487539097798,3.192852285318968e-08,3.002706486988543,0.216737446207961,0.8521115354892204
0.133432594681744,0.0148276852127331,2.7681220925572882e-08,2.743809819368324,0.2053174869206337,0.8492286045441989
0.134898886930994,0.0147833845065611,2.412641408187967e-08,2.505988845640222,0.1944992762494315,0.8465707313320552
0.1363651791802439,0.014743175276568,2.113554592945788e-08,2.290224484932819,0.1842511064530342,0.8441820585255201
0.1378314714294938,0.0147077697968803,1.8614893777470552e-08,2.0956774875015265,0.1745429405508235,0.8421125671861274
0.1392977636787438,0.0146777807166957,1.64915773372872e-08,1.920104417620692,0.165346324287775,0.8404088069928685
0.1407640559279937,0.0146535361924462,1.4698957062149909e-08,1.7609341221143182,0.156634302737423,0.8390981619330206
0.1422303481772436,0.0146349269542619,1.3169343455613322e-08,1.616284754605274,0.1483813412984729,0.8381748803908706
0.1436966404264936,0.0146214011447333,1.1837344923493103e-08,1.485155242722719,0.1405632508539342,0.8375987277167454
0.1451629326757435,0.0146121238020209,1.0647828117990997e-08,1.3669254570759477,0.1331571168739994,0.8373077450015107
0.1466292249249934,0.0146037652635439,7.318031438730188e-08,1.210281802001869,0.1261412322551056,0.8372355638303737
0.1469811144939253,0.0146037395732158,7.21100122193323e-08,1.2097523160277583,0.1245132764460379,0.8372355638303723
0.1473330040628572,0.0146029494882627,7.105844109409166e-08,1.190808324829567,0.1229063324027605,0.8372452431023738
0.1476848936317891,0.0146023281335504,7.002389945857801e-08,1.173850069198752,0.1213201289298297,0.8372606252418973
0.148036783200721,0.01460189216388,6.900641610838127e-08,1.1589742366836266,0.119754398332058,0.8372824314773077
0.1483886727696529,0.0146016684550346,6.800622720234363e-08,1.1464103657040383,0.1182088763693602,0.8373116499423732
0.1487405623385848,0.0146016950151159,6.702389215417377e-08,1.1364919695581417,0.1166833022121605,0.8373497011778903
0.1490924519075167,0.014602026400619,6.606050219899507e-08,1.129692822647583,0.1151774183973784,0.8373987042281503
0.1494443414764486,0.0146027426475733,6.5118100152222e-08,1.126672124688146,0.1136909707849848,0.8374619748219757
0.1497962310453805,0.0146039612987608,6.420058046523878e-08,1.1282463612685598,0.1122237085151234,0.8375450343338857
0.1501481206143124,0.0146058410305959,6.331560283693656e-08,1.134879939814926,0.1107753839657988,0.8376577877070287
0.1505000101832443,0.0146085383098676,6.247746015735679e-08,1.1445606229812262,0.109345752711134,0.8378191151539407
0.1508518997521762,0.0146122060999207,6.170605917043466e-08,1.151042039416412,0.1079345734802043,0.8380629243153084
0.1512037893211081,0.014617235146813,6.101736260101208e-08,1.1505198314537195,0.1065416081163895,0.8384313838502713
0.15155567889004,0.0146240970229204,6.04162068284725e-08,1.1448674778414172,0.1051666215371267,0.8389520695247273
0.1519075684589719,0.0146330487379773,5.989945371625924e-08,1.1366705671475874,0.1038093816940907,0.8396344132877839
0.1522594580279038,0.0146441759768852,5.946121103121002e-08,1.1274818463552565,0.1024696595339282,0.8404790711192625
0.1526113475968357,0.0146574832818566,5.9095260529824096e-08,1.1181126102709813,0.1011472289595672,0.8414834346169183
0.1529632371657676,0.0146729399297616,5.87958471456554e-08,1.1089807823501563,0.099841866792056,0.8426437304546817
0.1533151267346995,0.0146904999551798,5.8557883575834616e-08,1.1003002315128063,0.0985533527329056,0.843955805945091
0.1536670163036314,0.0147101110958005,5.837696182228536e-08,1.0921757771214011,0.0972814693269207,0.8454154433107072
0.1540189058725632,0.0147317190038795,5.8249303563814864e-08,1.084651924677979,0.0960260019255104,0.8470184931954035
0.1543707954414951,0.0147552693204999,5.817169509612754e-08,1.0777389386304628,0.0947867386504721,0.8487609327205168
0.154722685010427,0.0147807087239714,5.8141423049101656e-08,1.0714273879904264,0.0935634703582416,0.8506388896100703
0.1550745745793589,0.014807985458066,5.815621635752906e-08,1.0656965612085665,0.0923559906046037,0.8526486501520405
0.1554264641482908,0.0148370495843649,5.821419589727948e-08,1.0605194788994368,0.0911640956098588,0.854786659156832
0.1557783537172227,0.0148678530831816,5.8313831657919466e-08,1.055865945911037,0.0899875842244365,0.8570495158907062
0.1561302432861546,0.0149003498694756,5.84539067828853e-08,1.0517044360913563,0.0888262578949536,0.8594339680184142
0.1564821328550865,0.0149344957606092,5.8633487674539035e-08,1.0480032627610725,0.08767992063071,0.8619369046349034
0.1568340224240184,0.0149702484170697,5.8851899390056946e-08,1.0447313021230815,0.0865483789706158,0.8645553489746198
0.1571859119929503,0.015007567268584,5.9108705642220214e-08,1.0418584318069288,0.0854314419505454,0.8672864511236631
0.1575378015618822,0.0150464134330764,5.9403692823099656e-08,1.039355785464815,0.0843289210711126,0.8701274809142069
0.1578896911308141,0.0150867496329968,5.973685757038284e-08,1.037195887560935,0.0832406302658618,0.8730758210976063
0.158241580699746,0.0151285401117793,6.010839748910104e-08,1.0353527098683486,0.0821663858698687,0.8761289608444212
0.1585934702686779,0.0151717505521026,6.051870472422888e-08,1.0338016769515035,0.081106006588747,0.8792844895912026
0.1589453598376098,0.0152163479969434,6.09683621526829e-08,1.0325196387782307,0.080059313468055,0.8825400912371144
0.1592972494065417,0.0152623007739808,6.145814202811005e-08,1.031484822641908,0.0790261298630961,0.8858935386836096
0.1596491389754736,0.0153095784236314,6.198900697029474e-08,1.030676772621991,0.0780062814091102,0.8893426887046931
0.1600010285444055,0.015358151630819,6.256211324480635e-08,1.0300762821571172,0.0769995959918493,0.8928854771322419
0.1603529181133374,0.0154079921604667,6.317881632938219e-08,1.0296653235031037,0.0760059037185328,0.8965199143393678
0.1607048076822693,0.0154590727966293,6.384067881316374e-08,1.0294269766130564,0.0750250368891781,0.9002440810043078
0.1610566972512012,0.0155113672851376,6.454948072491246e-08,1.029345359125147,0.0740568299683012,0.9040561241374712
0.1614085868201331,0.015564850279601,6.53072324383807e-08,1.0294055585522244,0.0731011195569823,0.9079542533547474
0.161760476389065,0.0156194972906007,6.611619035885858e-08,1.029593567356592,0.072157744365293,0.9119367373809132
0.1621123659579968,0.0156752846379012,6.697887565646147e-08,1.0298962213072302,0.0712265451850785,0.9160019007677952
0.1624642555269287,0.0157321894055049,6.789809638114089e-08,1.0303011413183674,0.0703073648630922,0.920148120812734
0.1628161450958606,0.0157901893993821,6.887697337421956e-08,1.030796678831709,0.0694000482744771,0.9243738246638018
0.1631680346647925,0.01584926310771,6.991897048450339e-08,1.031371864711675,0.0685044422965895,0.9286774865990874
0.1635199242337244,0.0159093896634646,7.102792970740442e-08,1.0320163615609257,0.067620395783161,0.9330576254682568
0.1638718138026563,0.0159705488092155,7.220811199760204e-08,1.0327204193235553,0.066747759538795,0.937512802285372
0.1642237033715882,0.0160327208639817,7.346424466531734e-08,1.03347483401893,0.0658863862937926,0.9420416179627584
0.1645755929405201,0.016095886692016,7.480157646056178e-08,1.0342709094358395,0.0650361306793032,0.9466427111764176
0.164927482509452,0.0161600276733933,7.622594168804425e-08,1.0351004216110244,0.0641968492027979,0.9513147563541666
0.1652793720783839,0.0162251256762844,7.774383498978152e-08,1.0359555859159648,0.0633684002238597,0.9560564617783344
0.1656312616473158,0.016291163030807,7.936249879841667e-08,1.036829026579353,0.0625506439302866,0.96086656779541
0.1659831512162477,0.0163581225043517,8.109002592218116e-08,1.0377137484784835,0.0617434423145051,0.9657438451256066
0.1663350407851796,0.0164259872782872,8.293548029918726e-08,1.0386031110403533,0.0609466591502891,0.9706870932658106
0.1666869303541115,0.016494740925956,8.490903968994496e-08,1.0394908041016422,0.0601601599697808,0.9756951389798496
0.1670388199230434,0.0165643673918789,8.702216501038421e-08,1.0403708255855262,0.0593838120408102,0.9807668348704548
0.1673907094919753,0.0166348509720893,8.92878022076058e-08,1.0412374608622774,0.0586174843445089,0.9859010580277004
0.1677425990609072,0.0167061762955278,9.1720624134711e-08,1.042085263669554,0.0578610475532168,0.9910967087490709
0.1680944886298391,0.0167783283064125,9.43373219077983e-08,1.0429090381526502,0.0571143740086753,0.996352709326655
0.168446378198771,0.0168512922463157,9.715695767317957e-08,1.043703799571466,0.0563773377005074,1.0016680028944334
0.1687982677677029,0.01692505363325,1.0020139411069214e-07,1.044464703823181,0.055649814244979,1.0070415521761842
0.1691501573366348,0.0169995982535742,1.0349582272180039e-07,1.0451871910942767,0.05493168086404,1.012472338352718
0.1695020469055667,0.0170749121483052,1.0706941692478327e-07,1.0458669217674967,0.0542228163646434,1.017959360312968
0.1698539364744986,0.017150981598536,1.1095614505125866e-07,1.0464997366815425,0.0535231011183389,1.02350163374688
0.1702058260434304,0.0172277931126199,1.1519579147042406e-07,1.0470816462033532,0.0528324170411411,1.0290981902573504
0.1705577156123623,0.0173053334139953,1.19835250751389e-07,1.04760882014038,0.0521506475736703,1.0347480765155752
0.1709096051812942,0.0173835894296116,1.2493018395453958e-07,1.0480775784318035,0.0514776776615661,1.0404503534573115
0.1712614947502261,0.0174625482789234,1.3054716099633726e-07,1.0484843825624717,0.050813393736176,1.0462040955177094
0.171613384319158,0.017542197263419,1.367664640127522e-07,1.0488258276476403,0.0501576836955199,1.052008389902554
0.1719652738880899,0.0176225238566546,1.436858024957355e-07,1.049098635140834,0.0495104368855373,1.0578623358938928
0.1723171634570218,0.0177035156947642,1.514253059459365e-07,1.049299646120711,0.0488715440816243,1.0637650441881663
