Time [s],Lmtc [m],STIM [ ],Fsee [N],Gamma [ ],Lcerel [ ]
0.0,0.0205982656214121,0.9999997146922116,3.176130881554766,0.1522723604764263,1.268866341099881
0.0018305299888356,0.0205501991296804,0.99999963858492,3.784765290295589,0.1799469403299528,1.2640924122945558
0.0036610599776713,0.0204930418526655,0.9999995479317184,4.251814601915784,0.2067180640516533,1.2590194529460172
0.005491589966507,0.0204304402453566,0.9999994456398154,4.611433301951672,0.2326152250466797,1.2537917371971858
0.0073221199553427,0.0203645989645781,0.9999993344478674,4.895783135015639,0.257666953984775,1.2484851658747531
0.0091526499441783,0.0202968433203795,0.99999921682316,5.128388392118101,0.2819008502238598,1.2431422575486162
0.010983179933014,0.0202279786617632,0.9999990949129044,5.325091403687601,0.3053436122044181,1.237788004509815
0.0128137099218497,0.0201585034896367,0.9999989705358197,5.496316949209813,0.3280210668500519,1.2324376060171625
0.0146442399106854,0.0200887325025397,0.9999988451983092,5.648938479476351,0.3499581980079613,1.2271004985356808
0.016474769899521,0.0200188678092849,0.99999872012353,5.787548204014709,0.3711791739614951,1.2217825806850022
0.0183052998883567,0.0199490408326676,0.999998596285696,5.915270375193863,0.3917073740454873,1.216487503393982
0.0201358298771924,0.0198793375333261,0.9999984744449998,6.034273559224812,0.4115654143938377,1.2112174497936257
0.0219663598660281,0.0198098139720439,0.9999983551805804,6.146094075846677,0.4307751728476894,1.2059736235531568
0.0237968898548637,0.0197405061487962,0.9999982389202812,6.251842474369986,0.4493578130515369,1.2007565639060125
0.0256274198436994,0.0196714363693126,0.9999981259667354,6.352337326294105,0.4673338077636779,1.1955663540664865
0.0274579498325351,0.0196026174540179,0.9999980165197718,6.448193364481406,0.4847229614065261,1.1904027620875532
0.0292884798213708,0.0195340555754064,0.9999979106953866,6.5398805364977495,0.5015444318814924,1.185265337782692
0.0311190098102065,0.0194657522046458,0.9999978085416312,6.627764234635301,0.5178167516723235,1.1801534804203675
0.0329495397990421,0.0193977054680556,0.9999977100518072,6.712133146848451,0.5335578482600267,1.1750664865866012
0.0347800697878778,0.0193299111054113,0.9999976151753492,6.793218836275397,0.5487850638717673,1.170003584354934
0.0366105997767135,0.0192623631550519,0.9999975238267468,6.871209708234425,0.5635151745854098,1.1649639578574535
0.0384411297655492,0.0191950544486545,0.9999974358928208,6.946261112242687,0.577764408810667,1.1599467650363111
0.0402716597543848,0.0191279769715528,0.9999973512386192,7.0185027447992585,0.5915484651671602,1.154951150493646
0.0421021897432205,0.019061122126868,0.9999972697121704,7.088044141747114,0.6048825297790301,1.1499762547826935
0.0439327197320562,0.0189944809300439,0.9999971911482798,7.154978801305004,0.6177812930051131,1.1450212210924966
0.0457632497208919,0.0189280441525079,0.9999971153715372,7.219387313781649,0.6302589656230699,1.140085200009715
0.0475937797097276,0.0188618024278028,0.9999970421986664,7.281339762509109,0.6423292944852763,1.135167352853165
0.0494243096985632,0.018795746329805,0.999996971440325,7.340897584293679,0.6540055776636887,1.130266853943879
0.0512548396873989,0.0187298664300329,0.9999969029024472,7.398115024909689,0.6653006791003617,1.125382892078451
0.0530853696762346,0.0186641533391929,0.9999968363871992,7.453040288209896,0.6762270427797294,1.1205146714047292
0.0549158996650703,0.0185985977367764,0.9999967716936056,7.505716451268255,0.6867967064382574,1.1156614118488029
0.0567464296539059,0.0185331903915606,0.9999967086178932,7.556182199261193,0.6970213148265527,1.110822349205328
0.0585769596427416,0.0184679221751545,0.9999966469535896,7.604472420278016,0.7069121325385407,1.1059967349758628
0.0604074896315773,0.018402783746632,0.9999965864913976,7.650601920835718,0.7164800564218209,1.1011838360194128
0.062238019620413,0.0183377626944637,0.9999965270188717,7.6944168267094675,0.7257356275828829,1.0963829340639926
0.0640685496092487,0.0182728493311995,0.9999964683199012,7.735894630653517,0.7346890430003872,1.091593325116351
0.0658990795980843,0.0182080350510418,0.9999964101740132,7.775060735695973,0.7433501667593136,1.0868143187981505
0.06772960958692,0.0181433113520791,0.9999963523554888,7.811938320938677,0.7517285409183343,1.0820452376300718
0.0695601395757557,0.0180786698318683,0.9999962946322888,7.846548538749831,0.7598333960223898,1.0772854162801335
0.0713906695645914,0.0180141021818636,0.999996236764778,7.878910681945448,0.7676736612720403,1.0725342007884533
0.073221199553427,0.0179496001809531,0.9999961785042266,7.909042326177914,0.7752579743607898,1.0677909477775918
0.0750517295422627,0.0178851556883021,0.9999961195910646,7.936959451699252,0.7825946909912149,1.0630550236551646
0.0768822595310984,0.0178207606356555,0.9999960597528544,7.962676547846087,0.7896918940803799,1.05832580381353
0.0787127895199341,0.0177564070192178,0.9999959987019384,7.986206702948703,0.7965574026646653,1.0536026718298623
0.0805433195087697,0.0176920868911956,0.9999959361327044,8.007561681856938,0.8031987805138185,1.0488850186687708
0.0823738494976054,0.0176277923510697,0.9999958717184048,8.026751992870478,0.8096233444637043,1.044172241888688
0.0842043794864411,0.0175635155366401,0.9999958051074348,8.043786945536807,0.8158381724769226,1.0394637448525166
0.0860349094752768,0.0174992486148782,0.9999957359189704,8.058674700519086,0.8218501114401611,1.0347589359424612
0.0878654394641125,0.017434983772602,0.9999956637378246,8.071422312525142,0.8276657847068549,1.030057227778466
0.0896959694529481,0.0173707132069868,0.999995588108352,8.082035767116539,0.8332915993934483,1.0253580364393244
0.0915264994417838,0.01730642911591,0.9999955085271894,8.090520012075824,0.8387337534372611,1.0206607806851855
0.0933570294306195,0.0172421236881253,0.9999954244345528,8.096878983893681,0.8439982424237136,1.015964881179932
0.0951875594194552,0.0171777890932551,0.9999953352037438,8.10111562984122,0.8490908661903825,1.0112697597116442
0.0970180894082908,0.0171134174715825,0.9999952401284092,8.103231926011842,0.8540172352151305,1.0065748384091906
0.0988486193971265,0.0170490010620512,0.9999951384071132,8.103236274790337,0.8587827767952663,1.0018795389527544
0.1006791493859622,0.0169845328397291,0.9999950291294574,8.101173058653593,0.8633927410244833,0.9971832886329351
0.1025096793747979,0.0169200018430438,0.999994911260699,8.096792431769533,0.8678522065742229,0.9924856311212208
0.1043402093636336,0.0168554022739329,0.9999947836068648,8.090059352382934,0.8721660862858016,0.9877861942982596
0.1061707393524692,0.0167907289423877,0.9999946447757868,8.080971622993701,0.8763391325788372,0.9830846068930204
0.1080012693413049,0.0167259765884709,0.9999944931313988,8.06952633444181,0.880375942681843,0.9783804949382684
0.1098317993301406,0.016661139877537,0.9999943267350766,8.055719866514607,0.8842809636905771,0.9736734814419772
0.1116623293189763,0.0165962133951917,0.9999941432694124,8.039547886885963,0.888058497459339,0.9689631860473248
0.1134928593078119,0.0165311916419766,0.9999939399379546,8.021005348447257,0.8917127053301017,0.9642492246806156
0.1153233892966476,0.0164660690277702,0.9999937133315568,8.000086485074215,0.8952476127039841,0.9595312091863822
0.1171539192854833,0.0164008398658867,0.9999934592475922,7.976784805858904,0.8986671134591228,0.9548087469488052
0.118984449274319,0.0163354983668599,0.9999931724414048,7.951093087823286,0.9019749742184144,0.9500814404985188
0.1208149792631547,0.0162700386318892,0.999992846278372,7.923003367118069,0.905174838469828,0.9453488871037306
0.1226455092519903,0.0162044546459282,0.9999924722368848,7.892506928699499,0.9082702305408408,0.9406106783445136
0.124476039240826,0.0161387402703905,0.9999920391819594,7.859594294465059,0.9112645594269052,0.9358663996689864
0.1263065692296617,0.0160728892354464,0.9999915322756804,7.824255209818388,0.9141611224712216,0.931115629929988
0.1281370992184974,0.0160068951318789,0.9999909312933531,7.786478628622209,0.9169631088888068,0.926357940900736
0.129967629207333,0.0159407514024673,0.999990207929346,7.746252696486137,0.919673603120558,0.9215928967678034
0.1317981591961687,0.0158744513328598,0.9999893213067752,7.703564732322581,0.9222955879898592,0.9168200535996072
0.1336286891850044,0.0158079880418957,0.999988210119314,7.658401208087425,0.9248319476095548,0.9120389587884502
0.1354592191738401,0.0157413544713301,0.9999867780370278,7.610747726599078,0.9272854699374944,0.9072491504639648
0.1372897491626757,0.0156745433749121,0.9999848645170047,7.5605889972934435,0.9296588487722128,0.902450156875652
0.1391202791515114,0.0156075473067595,0.9999821805836488,7.507908809704643,0.9319546847305686,0.8976414957419946
0.1409508091403471,0.0155403586089651,0.99997814826859,7.452690004315371,0.934175484096996,0.8928226735634599
0.1427813391291828,0.0154729693983602,0.999971418881848,7.394914440061222,0.9363236524687912,0.8879931848966142
0.1446118691180185,0.0154053715523424,0.9999579457663011,7.3345629568943345,0.9384014728826776,0.8831525115868109
0.1464423991068541,0.0153375566937307,0.9999174882513696,7.271615333564093,0.9404110217399596,0.8783001219589006
0.1482729290956898,0.015269518248652,0.9328562897296448,7.206154546542224,0.9423536468940374,0.8734354699823181
0.1501034590845255,0.0152012865905945,3.6130154239146894e-05,7.140053157428003,0.9417330797580592,0.8685580982771851
0.1519339890733612,0.0151323975970403,1.5358067393386957e-05,7.048620038367757,0.8801979301766912,0.8636703442283851
0.1537645190621968,0.0150632290125967,8.545704566087651e-06,6.948996759295158,0.8226824778348918,0.858775163044336
0.1555950490510325,0.0149937597962511,5.313762866823226e-06,6.839893080949177,0.768924965185949,0.8538732198878474
0.1574255790398682,0.0149239661194216,3.5104603034613134e-06,6.719778639467478,0.71868006116567,0.8489654386634866
0.1592561090287039,0.0148538212153361,2.409305269433548e-06,6.586867522036167,0.6717183254204964,0.8440530553843235
0.1610866390175395,0.0147832955044524,1.697843840065597e-06,6.4391201411711965,0.6278252630542253,0.8391376801078483
0.1629171690063752,0.0147123572162543,1.2203370263333937e-06,6.274274525864715,0.5868003750626178,0.834221368218293
0.1647476989952109,0.0146409738186029,8.91072607945416e-07,6.089922679101504,0.5484562540032233,0.8293067017685416
0.1665782289840466,0.0145691146638595,6.594363548471072e-07,5.883650082303754,0.5126177330946121,0.8243968815835336
0.1684087589728823,0.0144967553359285,4.939490752170867e-07,5.653255447570803,0.4791210886358541,0.8194958309314516
0.1702392889617179,0.0144238841823416,3.7425188306191436e-07,5.397060174147094,0.4478132935013192,0.8146083118981894
0.1720698189505536,0.0143505113674244,2.86777324015723e-07,5.1142991683988805,0.4185513188926257,0.8097400562970134
0.1739003489393893,0.0142766804123043,2.222711950694779e-07,4.805555106846456,0.3912014814351932,0.8048979141763923
0.175730878928225,0.0142024815706414,1.7430529360210842e-07,4.473160597115315,0.3656388327772622,0.8000900249863009
0.1775614089170606,0.0141280656341197,1.3834963378379104e-07,4.121459669869104,0.3417465889787812,0.795326019845312
0.1793919389058963,0.0140536562083027,1.1117480203818265e-07,3.756813288943492,0.3194155971266223,0.7906172706119494
0.181222468894732,0.0139795587966607,9.045640885830196e-08,3.38727605293319,0.2985438367651231,0.7859772224371184
0.1830529988835677,0.0139812130377696,2.016315527875283e-07,5.960584176818849,0.2790359538801273,0.7814219144367514
0.1838375117359258,0.0139748514886105,1.95590122143732e-07,5.673133676288832,0.2710706532285768,0.7814219144367183
0.184622024588284,0.0139683882089456,1.8972115963727162e-07,5.388360636844172,0.2633327364863481,0.7814219154599162
0.1854065374406421,0.0139618426103062,1.840197373434318e-07,5.107433825560239,0.2558157125686126,0.7814219165501822
0.1861910502930003,0.0139552345364416,1.784810725730382e-07,4.831454189924847,0.2485132756902942,0.7814219177155786
0.1869755631453584,0.0139485840694686,1.731005191683957e-07,4.561442707887049,0.2414193000763535,0.7814219189653283
0.1877600759977165,0.0139419112622057,1.678735636057444e-07,4.298326763746465,0.2345278348230757,0.7814219203100304
0.1885445888500747,0.0139352358819519,1.627958212090587e-07,4.042929526520805,0.2278330989060525,0.781421921761923
0.1893291017024328,0.0139285771725154,1.5786303247203865e-07,3.795962497717946,0.22132947633067,0.7814219233352154
0.190113614554791,0.0139219536401115,1.5307105948523964e-07,3.5580212405955085,0.2150115114210355,0.781421925046508
0.1908981274071491,0.0139153828673804,1.484158824653824e-07,3.32958416211111,0.2088739042433889,0.78142192691533
0.1916826402595073,0.0139088813583296,1.4389359638398774e-07,3.1110141000770373,0.2029115061601616,0.7814219289648369
0.1924671531118654,0.0139024644155892,1.3950040769258665e-07,2.902562376862441,0.1971193155109546,0.7814219312227269
0.1932516659642235,0.0138961460500449,1.3523263114187512e-07,2.7043749196784908,0.191492473416808,0.7814219337224705
0.1940361788165817,0.0138899389217739,1.3108668669232562e-07,2.5165000156345907,0.1860262597042478,0.781421936504985
0.1948206916689398,0.0138838543102643,1.2705909651394778e-07,2.338897264758228,0.1807160889456859,0.7814219396209662
0.195605204521298,0.0138779021112012,1.231464820731537e-07,2.171447311856692,0.1755575066128561,0.7814219431342101
0.1963897173736561,0.0138720908566363,1.1934556130508598e-07,2.0139619734632026,0.1705461853400556,0.7814219471264793
0.1971742302260143,0.013866427755133,1.1565314587046605e-07,1.8661944239962025,0.1656779212940604,0.7814219517048648
0.1979587430783724,0.0138609187484951,1.1206613849735685e-07,1.7278491610471136,0.1609486306476664,0.7814219570133559
0.1987432559307305,0.0138555685819842,1.0858153041100475e-07,1.598591530170368,0.1563543461539016,0.7814219632518731
0.1995277687830887,0.013850380885698,1.0519639886133477e-07,1.4780566546843952,0.1518912138180317,0.781421970709401
0.2003122816354468,0.0138453582666868,1.0190790477428829e-07,1.3658576951863457,0.1475554896645707,0.7814219798259352
0.201096794487805,0.0138405024171507,9.871329060340873e-08,1.2615935025366258,0.1433435365965825,0.781421991319647
0.2018813073401631,0.0138358142672507,9.560987864588205e-08,1.1648561638790842,0.1392518213446394,0.7814220064835855
0.2026658201925213,0.0138312943492104,9.259507107525915e-08,1.0752414022504315,0.1352769115028781,0.7814220280216441
0.2034503330448794,0.0138269452877132,8.966636356126765e-08,0.9923960977238075,0.1314154726496668,0.7814220632693666
0.2042348458972376,0.0138232887602834,8.682401141462474e-08,0.9252987447328668,0.1276642655504694,0.781422148722443
0.2050193587495957,0.0138214101437789,8.407535518860117e-08,0.8905509051535833,0.1240201434406336,0.7814270899586561
0.2058038716019538,0.0138202158323138,8.142586994837544e-08,0.8635179508727207,0.1204800493858718,0.7814523357751666
0.206588384454312,0.0138198867596645,7.887863672209595e-08,0.8454412046744717,0.117041013717835,0.7815044266382569
0.2073728973066701,0.0138208258926858,7.644990121880564e-08,0.8396847867820069,0.1137001515428795,0.7815972763518373
0.2081574101590283,0.0138237363884926,7.420431538733253e-08,0.8494645270691433,0.1104546603223926,0.7817680227964424
0.2089419230113864,0.0138291654943479,7.229238754736952e-08,0.8539047568375158,0.1073018175232003,0.7821450314405695
0.2097264358637446,0.013840099162321,7.081687185075102e-08,0.8409500308247163,0.1042389783361161,0.7829967299670374
0.2105109487161027,0.0138586593858772,6.974609556856116e-08,0.8237624984359451,0.1012635734558043,0.7844228688257947
0.2112954615684608,0.0138848845820479,6.900897202889577e-08,0.8072501540651177,0.0983731069215471,0.786405549904772
0.212079974420819,0.0139183794807229,6.854663761811622e-08,0.7926043930959156,0.0955651540223631,0.7889106876591062
0.2128644872731771,0.0139586893384038,6.831478564816609e-08,0.7800067793908739,0.0928373592634024,0.7919041294975353
0.2136490001255353,0.0140053742216351,6.828047903537766e-08,0.7693375697068251,0.0901874343904605,0.7953541349156426
0.2144335129778934,0.0140580255292445,6.841926498702346e-08,0.760389727314697,0.0876131564707964,0.7992316755835013
0.2152180258302516,0.0141162682952145,6.871304374748479e-08,0.7529421423378037,0.0851123660286529,0.803510281484281
0.2160025386826097,0.0141797594581162,6.914854596232262e-08,0.7467858244283342,0.0826829652339436,0.8081657912160429
0.2167870515349678,0.01424818502364,6.971624724399227e-08,0.7417325628226619,0.0803229161426013,0.8131760979700567
0.217571564387326,0.0143212570735775,7.04095910175446e-08,0.7376166430400134,0.0780302389871295,0.8185209162351522
0.2183560772396841,0.0143987109457834,7.122443011367681e-08,0.734293798064983,0.07580301051593,0.8241815748585165
0.2191405900920423,0.014480302686348,7.215862596177516e-08,0.7316391472996489,0.0736393623800225,0.8301408359463626
0.2199251029444004,0.0145658067908548,7.321176361504437e-08,0.7295448816400711,0.0715374795658056,0.8363827371916789
0.2207096157967586,0.0146550142194883,7.438495397280015e-08,0.7279180199791146,0.0694955988725507,0.8428924547929483
0.2214941286491167,0.014747730659625,7.56807035495082e-08,0.7266783666295211,0.0675120074333518,0.8496561842270246
0.2222786415014749,0.0148437750071011,7.71028384004327e-08,0.7257567091871372,0.0655850412782944,0.8566610364114299
0.223063154353833,0.0149429780385069,7.865647329006915e-08,0.7250932555224672,0.0637130839386392,0.8638949471019769
0.2238476672061911,0.0150451812493764,8.034802050385999e-08,0.7246362911637986,0.0618945650908508,0.8713465976697053
0.2246321800585493,0.0151502358360459,8.21852352751184e-08,0.7243410321613238,0.0601279592393355,0.8790053456687267
0.2254166929109074,0.0152580018018029,8.41772969197088e-08,0.7241686476880344,0.0584117844367841,0.8868611638396442
0.2262012057632656,0.0153683471705647,8.633492665560544e-08,0.7240854282125186,0.0567446010410469,0.8949045863930507
0.2269857186156237,0.0154811472936517,8.867054490387664e-08,0.7240620776138506,0.0551250105074997,0.9031266615876778
0.2277702314679819,0.0155962842372503,9.11984727729608e-08,0.7240731103815045,0.0535516542158881,0.911518909761896
0.22855474432034,0.0157136462399073,9.393518456976573e-08,0.7240963377144172,0.0520232123306678,0.9200732860992832
0.2293392571726981,0.0158331272309072,9.689962072684493e-08,0.7241124287561282,0.0505384026938852,0.9287821475122152
0.2301237700250563,0.015954626401662,1.0011357368918613e-07,0.7241045353298057,0.0490959797496723,0.9376382231148442
0.2309082828774144,0.0160780478233453,1.0360216333252733e-07,0.7240579703677849,0.0476947334994546,0.9466345878309748
0.2316927957297726,0.0162033001049368,1.0739442374731713e-07,0.7239599317879234,0.0463334884869979,0.9557646387452624
0.2324773085821307,0.0163302960866433,1.1152403021992757e-07,0.7237992648842595,0.0450111028124459,0.965022073859702
0.2332618214344889,0.0164589525643432,1.1603020468980869e-07,0.7235662574050816,0.0437264671745245,0.974400872962988
0.234046334286847,0.016589190041288,1.2095885089346158e-07,0.7232524624183543,0.0424785039401139,0.9838952803592802
0.2348308471392051,0.0167209325037508,1.2636398833610126e-07,0.7228505441952954,0.0412661662404137,0.9934997892362284
0.2356153599915633,0.0168541072149136,1.3230957789922542e-07,0.7223541007648486,0.0400884370929513,1.0032091274679618
0.2363998728439214,0.0169886445150332,1.3887186658837528e-07,0.7217574520867465,0.0389443285487053,1.013018244032036
0.2371843856962796,0.0171244776670848,1.4614244481771026e-07,0.7210558309656071,0.0378328808636433,1.0229222968961516
0.2379688985486377,0.0172615427102008,1.542322698215034e-07,0.7202451908452212,0.0367531616939974,1.032916643223944
0.2387534114009959,0.0173997783176795,1.6327702565307746e-07,0.7193220791616143,0.0357042653146257,1.0429968296128316
0.239537924253354,0.0175391256682027,1.7344437223035614e-07,0.7182835692816099,0.0346853118598411,1.0531585830250736
0.2403224371057122,0.0176795283273236,1.8494390792882282e-07,0.717127200537351,0.0336954465861186,1.0633978024292463
