Time [s],Lmtc [m],STIM [ ],Fsee [N],Gamma [ ],Lcerel [ ]
0.0,0.0187295205092882,0.9999997765119324,0.4836922229059076,0.0585369576097039,1.141109036917854
0.0012152479174277,0.0187667632638692,0.9999997816002636,1.0907291001189736,0.0790545974274724,1.1411090369115755
0.0024304958348554,0.0188069533694778,0.9999997865776896,2.018932851944975,0.0991250890086467,1.141109034379843
0.0036457437522832,0.0188463400464274,0.9999997914457855,3.2036593111506426,0.1187581772141006,1.1411090298359552
0.0048609916697109,0.0188674849788695,0.9999997894607652,3.952056675443942,0.1379633945314637,1.1411089531806138
0.0060762395871387,0.0188759526911836,0.9999997758219888,4.616381403257394,0.1567500655564455,1.1404766261686177
0.0072914875045664,0.0188745677377501,0.9999997535483132,5.200947732845097,0.1751273115658471,1.139348791823777
0.0085067354219942,0.0188656273275595,0.9999997244116012,5.700362442197034,0.1931040551189744,1.1378647353807796
0.0097219833394219,0.0188509190625737,0.9999996894382208,6.119149942298688,0.210689024361185,1.1361223772469198
0.0109372312568497,0.0188318127679412,0.9999996493255456,6.467028891077379,0.2278907572445747,1.134190195872946
0.0121524791742774,0.0188093465308672,0.9999996046069092,6.755340649825539,0.2447176056657583,1.1321163981264928
0.0133677270917052,0.0187843009856238,0.9999995557230564,6.9949459624254935,0.2611777395170691,1.1299353276883035
0.0145829750091329,0.0187572615704871,0.999999503054717,7.195300249715984,0.2772791506510261,1.1276718107279218
0.0157982229265607,0.0187286680454926,0.9999994469379468,7.364222493875304,0.2930296567591131,1.1253440731354354
0.0170134708439884,0.0186988523217794,0.9999993876715944,7.507996517792057,0.3084369051663577,1.1229657022421202
0.0182287187614162,0.0186680666338548,0.9999993255211412,7.631595821676532,0.3235083765433804,1.1205469772251766
0.0194439666788439,0.0186365042259363,0.9999992607208936,7.738928655571729,0.3382513885376254,1.1180957822686846
0.0206592145962717,0.0186043144484883,0.9999991934754444,7.833059778449424,0.3526730993255053,1.1156182419590313
0.0218744625136994,0.0185716137673417,0.9999991239608322,7.916395290268418,0.3667805110871636,1.1131191697381768
0.0230897104311272,0.0185384938151522,0.9999990523255656,7.990830296350724,0.3805804734055339,1.110602388929938
0.0243049583485549,0.0185050273106172,0.9999989786915826,8.057864210570786,0.3940796865913484,1.1080709657306318
0.0255202062659827,0.0184712724394311,0.9999989031551488,8.118689712527239,0.4072847049357008,1.1055273805479215
0.0267354541834104,0.0184372761215004,0.9999988257876766,8.17426099927383,0.4202019398917451,1.1029736555859595
0.0279507021008381,0.0184030758215052,0.9999987466364426,8.22531136743409,0.4328376631870738,1.1004114509769296
0.0291659500182659,0.0183687020277174,0.9999986657251742,8.27242604703658,0.4451980098682815,1.0978421380212229
0.0303811979356936,0.0183341803808246,0.9999985830544772,8.316111204853987,0.4572889812791895,1.0952668555714926
0.0315964458531214,0.0182995320959326,0.9999984986020828,8.356781692631282,0.4691164479741755,1.0926865538662165
0.0328116937705491,0.0182647748149613,0.9999984123228818,8.394779500434979,0.4806861525680164,1.090102028920047
0.0340269416879769,0.0182299232741911,0.9999983241487286,8.430388148580441,0.4920037125236247,1.087513949738217
0.0352421896054046,0.0181949898309438,0.99999823398798,8.463843969116114,0.5030746228790257,1.0849228800266877
0.0364574375228324,0.0181599848821363,0.9999981417247436,8.495344997282373,0.5139042589148968,1.0823292956428887
0.0376726854402601,0.0181249171992168,0.999998047217798,8.525058017629089,0.5244978787639517,1.0797335987228005
0.0388879333576879,0.0180897941979702,0.9999979502991424,8.55312417811176,0.53486062596344,1.0771361291940624
0.0401031812751156,0.0180546221572346,0.9999978507721266,8.579663487132036,0.5449975319519798,1.0745371742179255
0.0413184291925434,0.0180194063972744,0.9999977484090974,8.60477843464775,0.5549135185119437,1.0719369759785582
0.0425336771099711,0.0179841514260895,0.9999976429484844,8.62855692284289,0.5646134001585568,1.0693357381448334
0.0437489250273989,0.0179488610600813,0.9999975340912288,8.651074649759924,0.5741018864768733,1.0667336312590243
0.0449641729448266,0.0179135385240882,0.9999974214964392,8.672397057315601,0.5833835844077387,1.0641307972528558
0.0461794208622544,0.0178781865347288,0.9999973047761208,8.692580930707175,0.5924630004838402,1.0615273532498728
0.0473946687796821,0.0178428073701646,0.9999971834887912,8.71167571748903,0.6013445430169129,1.0589233947809775
0.0486099166971099,0.0178074029287557,0.9999970571317466,8.729724620166133,0.6100325242371377,1.056318998514943
0.0498251646145376,0.0177719747785872,0.9999969251316744,8.74676550497249,0.6185311623857475,1.053714224586086
0.0510404125319654,0.0177365241994542,0.9999967868332243,8.762831660803739,0.6268445837618241,1.051109118585797
0.0522556604493931,0.0177010522185904,0.9999966414850406,8.777952435471716,0.6349768247242381,1.0485037132723212
0.0534709083668209,0.0176655596411796,0.9999964882226066,8.79215377110613,0.6429318336496563,1.0458980300433751
0.0546861562842486,0.0176300470765027,0.9999963260470528,8.805458656312533,0.6507134728475045,1.043292080208318
0.0559014042016763,0.0175945149604142,0.9999961537988092,8.817887509353978,0.6583255204327328,1.0406858660902496
0.0571166521191041,0.017558963574722,0.9999959701246056,8.829458503963526,0.6657716721571951,1.038079381983256
0.0583319000365318,0.0175233930639436,0.9999957734358044,8.840187847267847,0.6730555432003954,1.0354726149858402
0.0595471479539596,0.0174878034498331,0.9999955618553164,8.850090017594711,0.6801806699203021,1.032865545728166
0.0607623958713873,0.017452194644003,0.9999953331493038,8.859177968560985,0.6871505115648473,1.030258149007903
0.0619776437888151,0.0174165664589187,0.9999950846383528,8.867463304724023,0.6939684519446386,1.0276503943471749
0.0631928917062428,0.0173809186174916,0.9999948130805628,8.874956433175106,0.700637801067282,1.0250422464811624
0.0644081396236706,0.0173452507614666,0.9999945145156446,8.881666694715758,0.7071617967335396,1.022433665787349
0.0656233875410983,0.0173095624587664,0.9999941840539812,8.887602477654756,0.7135436060953027,1.0198246086630374
0.0668386354585261,0.0172738532099312,0.9999938155866004,8.892771316767998,0.719786327175015,1.0172150278576693
0.0680538833759538,0.0172381224537716,0.999993401379174,8.897179979555386,0.7258929903456633,1.0146048727655437
0.0692691312933816,0.017202369572335,0.9999929314921028,8.90083454159121,0.7318665597696636,1.0119940896837312
0.0704843792108093,0.0171665938952717,0.9999923929331228,8.9037404524848,0.7377099347937539,1.0093826220393245
0.0716996271282371,0.0171307947036734,0.9999917683865256,8.905902593734721,0.7434259512950157,1.0067704105895976
0.0729148750456648,0.0170949712334484,0.99999103424982,8.907325329565163,0.7490173829698732,1.0041573935981654
0.0741301229630926,0.017059122696562,0.9999901574936076,8.908013573629745,0.7544869425522079,1.0015435069898275
0.0753453708805203,0.0170232485258598,0.999989090435346,8.907985933478802,0.7598372829364967,0.9989286850602584
0.0765606187979481,0.0169873469885909,0.9999877616098825,8.907186454856918,0.7650709981625731,0.996312874449648
0.0777758667153758,0.0169514172793498,0.9999860588090544,8.905597870997521,0.7701906241799734,0.9936960390967012
0.0789911146328036,0.0169154589326108,0.9999837951969202,8.903222512381918,0.7751986392259985,0.9910781423062148
0.0802063625502313,0.0168794714532502,0.9999806348840736,8.900062418600399,0.7800974634570856,0.9884591457397576
0.0814216104676591,0.0168434543181389,0.9999759072422406,8.896119359060645,0.7848894569662398,0.985839009504046
0.0826368583850868,0.0168074069775531,0.9999680515240608,8.891394850530027,0.7895769137970077,0.9832176922305632
0.0838521063025145,0.0167713288564232,0.9999524065939792,8.88589017125409,0.7941620439844237,0.980595151148108
0.0850673542199423,0.0167352193556304,0.9999059169184568,8.879606380499933,0.7986469078186305,0.9779713421519896
0.08628260213737,0.0166991070297371,0.4994838679090292,8.87417274156516,0.8030330182365639,0.9753462198895008
0.0874978500547978,0.0166628633184831,4.100615603943628e-05,8.861750274708996,0.7897158215524548,0.9727206545329156
0.0887130979722255,0.0166264061543197,1.8325145774856506e-05,8.836097866278262,0.7550713659293921,0.970096849853472
0.0899283458896533,0.0165899322885474,1.083339492287668e-05,8.806927658139632,0.7219458491244367,0.9674764875047832
0.091143593807081,0.0165534425222089,7.183519755255247e-06,8.773826606855218,0.6902732980955164,0.9648601915161864
0.0923588417245088,0.0165169381206892,5.071159772071628e-06,8.73632839333015,0.6599901363618461,0.9622486974744624
0.0935740896419365,0.0164804209564413,3.723638192974547e-06,8.69390975062552,0.631035475595902,0.9596428700741788
0.0947893375593643,0.0164438936907443,2.8089475104306456e-06,8.645987493239343,0.6033510648857078,0.9570437232081556
0.096004585476792,0.0164073600085202,2.16099608530415e-06,8.591916870844242,0.5768811943582066,0.954452442927422
0.0972198333942198,0.0163708249208791,1.6876248902138496e-06,8.530991907468794,0.5515725909769468,0.951870413599934
0.0984350813116475,0.0163342951527679,1.33370543934706e-06,8.462448525633015,0.5273743148758818,0.949299247602171
0.0996503292290753,0.0162977796360499,1.0643295807523383e-06,8.385471398394438,0.5042376586222932,0.9467408188713532
0.100865577146503,0.0162612901310463,8.563900516074354e-07,8.299205589991962,0.4821160501617841,0.944197300621288
0.1020808250639308,0.0162248420014582,6.9404056180943e-07,8.202774101763973,0.4609649596519302,0.9416712074740246
0.1032960729813585,0.0161884551678699,5.660984347611327e-07,8.095302386571186,0.440741810184183,0.9391654421730008
0.1045113208987863,0.0161521552626357,4.644845495847847e-07,7.975950673549351,0.421405892308662,0.9366833469096852
0.105726568816214,0.0161159750025864,3.832474095891804e-07,7.843954492337315,0.4029182822405024,0.9342287591008996
0.1069418167336418,0.0160799557842345,3.179311770006004e-07,7.698673046739068,0.3852417636118677,0.9318060711827448
0.1081570646510695,0.0160441494877339,2.651541338796682e-07,7.539644035864115,0.3683407526291598,0.9294202936227144
0.1093723125684972,0.01600862045002,2.2232019414404935e-07,7.366642187015399,0.3521812264952655,0.9270771198789588
0.110587560485925,0.015973447534691,1.8741700503202519e-07,7.17973726701797,0.3367306549594304,0.9247829914439828
0.1118028084033527,0.0159387261883662,1.5887185207885592e-07,6.979345904151688,0.3219579348613444,0.9225451603990332
0.1130180563207805,0.0159045703347752,1.3544703202789898e-07,6.766270514445341,0.3078333275406096,0.9203717460950906
0.1142333042382082,0.0158711139253949,1.1616272237999277e-07,6.541718379835751,0.2943283989876118,0.9182717817217148
0.115448552155636,0.0158385119476646,1.0023935627049961e-07,6.307294836530345,0.2814159626167323,0.9162552457383244
0.1166638000730637,0.015806940697846,8.70540609977087e-08,6.064966793953307,0.2690700245477037,0.9143330726197224
0.1178790479904915,0.0157765971625311,7.610738913474845e-08,5.816996279988057,0.2572657312856908,0.9125171374038076
0.1190942959079192,0.0157476974209111,6.699769032718007e-08,5.565847786209295,0.2459793196953112,0.9108202094622144
0.120309543825347,0.015720474064647,5.940123812449533e-08,5.314076729986334,0.2351880691682871,0.9092558728453038
0.1215247917427747,0.0157295205092863,1.3740204025479573e-07,6.616001290066544,0.2248702558887445,0.907838412556767
0.1219838160568557,0.0157253727093918,1.3492520179339698e-07,6.417614958125592,0.2210918792102023,0.9078384125544688
0.1224428403709366,0.0157211943988531,1.3248998399904874e-07,6.220822181409607,0.2173769914289468,0.9078384131491848
0.1229018646850175,0.0157169899961232,1.3009568573790638e-07,6.025893690404026,0.2137245257270237,0.907838413767825
0.1233608889990984,0.0157127638795768,1.277416194362681e-07,5.833085381206235,0.2101334332124564,0.9078384144121046
0.1238199133131794,0.0157085204503534,1.2542710907400897e-07,5.642641456507367,0.2066026826180315,0.9078384150838876
0.1242789376272603,0.0157042641122274,1.2315148999044644e-07,5.454793309598183,0.2031312600051464,0.9078384157852042
0.1247379619413412,0.0156999992519237,1.209141086934714e-07,5.269758551083932,0.1997181684726324,0.9078384165182696
0.1251969862554222,0.015695730220064,1.1871432267188943e-07,5.087740184777909,0.1963624278704712,0.9078384172855062
0.1256560105695031,0.0156914613129173,1.1655150021091904e-07,4.908925936603834,0.1930630745183218,0.9078384180895668
0.126115034883584,0.0156871967551046,1.1442502021079455e-07,4.733487737755643,0.1898191609287765,0.9078384189333666
0.126574059197665,0.0156829406833925,1.123342720084229e-07,4.561581360897958,0.1866297555352679,0.9078384198201152
0.1270330835117459,0.0156786971316859,1.102786552020428e-07,4.393346205897568,0.1834939424245466,0.9078384207533542
0.1274921078258268,0.0156744700173107,1.0825757947883873e-07,4.2289052294997855,0.1804108210736565,0.9078384217370072
0.1279511321399078,0.0156702631286537,1.0627046444546021e-07,4.068365011535718,0.1773795060913269,0.9078384227754308
0.1284101564539887,0.0156660801142061,1.0431673946139982e-07,3.9118159486971815,0.1743991269637125,0.9078384238734806
0.1288691807680696,0.0156619244730349,1.0239584347518493e-07,3.7593325656533687,0.171468827804404,0.9078384250365884
0.1293282050821506,0.0156577995466887,1.005072248633384e-07,3.610973932316912,0.1685877671086401,0.9078384262708517
0.1297872293962315,0.0156537085125242,9.865034127206577e-08,3.466784175390756,0.1657551175116503,0.90783842758315
0.1302462537103124,0.0156496543784236,9.682465946162875e-08,3.326793071927989,0.1629700655510567,0.9078384289812784
0.1307052780243933,0.0156456399788595,9.502965515336681e-08,3.1910167125005406,0.1602318114332691,0.9078384304741112
0.1311643023384743,0.0156416679722495,9.326481287933145e-08,3.059458221671583,0.1575395688038058,0.9078384320718154
0.1316233266525552,0.0156377408395342,9.152962583450263e-08,2.932108523777003,0.154892564521473,0.9078384337861052
0.1320823509666361,0.015633860883901,8.982359573156189e-08,2.8089471425135506,0.1522900384363387,0.90783843563057
0.1325413752807171,0.0156300302315755,8.814623265820415e-08,2.68994302347682,0.1497312431714385,0.9078384376210956
0.133000399594798,0.0156262508335915,8.649705493698102e-08,2.575055369561321,0.1472154439081476,0.9078384397764055
0.1334594239088789,0.0156225244684551,8.487558898768659e-08,2.464234480004408,0.144741918175161,0.9078384421187772
0.1339184482229599,0.0156188527456168,8.328136919232013e-08,2.357422584802932,0.1423099556410185,0.907838444674994
0.1343774725370408,0.0156152371096708,8.171393776270348e-08,2.25455466724767,0.1399188579101161,0.9078384474776456
0.1348364968511217,0.0156116788452086,8.017284461089475e-08,2.155559268408618,0.1375679383221454,0.9078384505669296
0.1352955211652027,0.0156081790822735,7.865764722265827e-08,2.0603592686028263,0.1352565217549028,0.9078384539932126
0.1357545454792836,0.0156047388023885,7.716791053445248e-08,1.9688726422871,0.1329839444304116,0.9078384578207668
0.1362135697933645,0.0156013588451881,7.570320681478245e-08,1.8810131846969247,0.1307495537243037,0.9078384621334
0.1366725941074454,0.0155980399158029,7.426311555151881e-08,1.7966912115323823,0.1285527079784017,0.9078384670432552
0.1371316184215264,0.0155947825934005,7.284722334839376e-08,1.715814238736716,0.1263927763164526,0.9078384727051884
0.1375906427356073,0.0155915873419329,7.145512383757995e-08,1.638287662717862,0.124269138462956,0.9078384793416048
0.1380496670496882,0.0155884545259364,7.008641762474024e-08,1.5640154978255445,0.1221811845650378,0.9078384872883956
0.1385086913637692,0.0155853844401336,6.874071231093168e-08,1.492901347260839,0.1201283150173163,0.9078384970879296
0.1389677156778501,0.0155823773856204,6.741762273677891e-08,1.424850273033527,0.1181099402897116,0.9078385097017692
0.139426739991931,0.015579433962534,6.611677209403049e-08,1.3597750461472755,0.1161254807581474,0.907838527092027
0.139885764306012,0.0155765572505744,6.48377991635841e-08,1.2976413759575476,0.1141743665380992,0.90783855434237
0.1403447886200929,0.0155739721125332,6.358092521960091e-08,1.2430349081416905,0.1122560373209381,0.907838613659804
0.1408038129341738,0.0155725626710732,6.234896062665903e-08,1.2133803710639814,0.1103699422130344,0.9078399773854702
0.1412628372482547,0.0155714507456153,6.114416406704613e-08,1.18802665674554,0.1085155395775991,0.9078489428082837
0.1417218615623357,0.0155706099174124,5.99664272655843e-08,1.1659517168776332,0.1066922968791296,0.9078668131596204
0.1421808858764166,0.0155700819623364,5.881600000742415e-08,1.1475058350399328,0.104899690530439,0.9078950519310696
0.1426399101904975,0.0155699318724273,5.76939423122333e-08,1.1332812596025423,0.1031372057423014,0.9079359311818124
0.1430989345045785,0.0155702619471844,5.6602794968858534e-08,1.1242202085407036,0.1014043363756313,0.9079931688004284
0.1435579588186594,0.0155712387693494,5.554822865709361e-08,1.1217841776460735,0.0997005847961585,0.908073311808102
0.1440169831327403,0.0155731267097489,5.4543534990767827e-08,1.1277129790450555,0.0980254617315715,0.908189175369796
0.1444760074468213,0.0155762246720749,5.3619862071442956e-08,1.1402145855011343,0.0963784861311387,0.9083693134743352
0.1449350317609022,0.0155808020304248,5.2827162854547e-08,1.1469158340401862,0.0947591850278586,0.9086785775339458
0.1453940560749831,0.0155878091451514,5.2202670105802616e-08,1.141921031363513,0.0931670934029431,0.9092074877644692
0.145853080389064,0.0155981624165412,5.1750685255618285e-08,1.1308210343205074,0.0916017540520485,0.9100026427717552
0.146312104703145,0.0156121574481219,5.1458822930111375e-08,1.117712299223374,0.0900627174534135,0.9110708321636476
0.1467711290172259,0.0156298042481455,5.1312683036968785e-08,1.1043787291687994,0.0885495416384873,0.9124063130394
0.1472301533313068,0.0156510179074621,5.1299801551234274e-08,1.0915695583201708,0.087061792064977,0.91400012640193
0.1476891776453878,0.0156756826385311,5.1410246121665127e-08,1.0795944379998483,0.0855990414920951,0.9158426438750495
0.1481482019594687,0.0157036741783932,5.163646335164861e-08,1.068564780336374,0.0841608698579132,0.917924341245267
0.1486072262735496,0.015734868386141,5.197299813915616e-08,1.0584976399912494,0.0827468641587739,0.9202360540662994
0.1490662505876306,0.0157691447349949,5.24162342627342e-08,1.049363946312516,0.0813566183307244,0.9227690586024212
0.1495252749017115,0.0158063877150941,5.2964188997337935e-08,1.0411123698103155,0.0799897331329376,0.9255150870664028
0.1499842992157924,0.0158464873124092,5.361636417040484e-08,1.0336817038485608,0.0786458160330894,0.928466316503376
0.1504433235298733,0.0158893390576352,5.4373648892246025e-08,1.027007486750508,0.077324481094659,0.9316153470462863
0.1509023478439543,0.0159348438705624,5.523826870820289e-08,1.0210255874812506,0.076025348866121,0.9349551763163964
0.1513613721580352,0.0159829078090831,5.62137773611066e-08,1.0156741270504042,0.0747480462719997,0.9384791730348044
0.1518203964721161,0.0160334417780223,5.730508930040374e-08,1.010894461233362,0.0734922065057526,0.9421810512624104
0.1522794207861971,0.0160863612264841,5.851855314839405e-08,1.006631623967963,0.072257468924455,0.9460548459109076
0.152738445100278,0.0161415858487966,5.98620685040315e-08,1.0028344585148763,0.0710434789452558,0.9500948897880048
0.1531974694143589,0.016199039296874,6.134525083356575e-08,0.999455568903227,0.0698498879435742,0.9542957922495746
0.1536564937284399,0.0162586489078384,6.297965193778733e-08,0.9964511705247728,0.0686763531530107,0.9586524194351514
0.1541155180425208,0.0163203454485132,6.47790468339353e-08,0.993780887430077,0.0675225375669432,0.9631598760155916
0.1545745423566017,0.0163840628771536,6.675980216637627e-08,0.9914075251801904,0.0663881098417812,0.9678134883599386
0.1550335666706827,0.0164497381220734,6.894134690936141e-08,0.9892968367242893,0.0652727442018526,0.972608789020606
