Time [s],Lmtc [m],STIM [ ],Fsee [N],Gamma [ ],Lcerel [ ]
0.0,0.0226341447524586,0.9999993665915148,1.3820886181054628,0.0919232915986142,1.421980223838261
0.0056689367889893,0.0225367798705065,0.9999985685983734,2.732941450368429,0.1806246808915843,1.411167841132982
0.0113378735779786,0.0223811549305265,0.9999973966776046,3.4493766889431665,0.2606615899041966,1.3982364731408965
0.0170068103669679,0.0222220927416378,0.9999961116420776,3.9652606502461065,0.3328803334904148,1.3855995284227025
0.0226757471559572,0.0220677553630851,0.9999948637353936,4.405833111332857,0.398044583462326,1.3735118733304874
0.0283446839449465,0.0219190151565325,0.9999937297291008,4.80424655188388,0.4568434304092782,1.3619478120108592
0.0340136207339358,0.0217754638446551,0.9999927421450396,5.172786707392545,0.5098986616575659,1.3508423755937784
0.0396825575229251,0.0216364967939632,0.9999919085903156,5.517504201285262,0.5577713311692845,1.3401329882059048
0.0453514943119144,0.0215015432631446,0.9999912235061308,5.842035642128908,0.6009676895783468,1.3297664631177502
0.0510204311009038,0.0213701104659468,0.9999906749693795,6.148867032153092,0.6399445361248203,1.319698834185586
0.0566893678898931,0.0212417825254542,0.9999902485077338,6.43984164410498,0.6751140484736396,1.3098938303788383
0.0623583046788824,0.0211162093942747,0.9999899291752252,6.716399454679789,0.7068481411265249,1.3003213369977458
0.0680272414678717,0.0209930950724376,0.9999897026325008,6.9797054369417175,0.7354823983044811,1.2909561212766434
0.073696178256861,0.0208721874372581,0.9999895556642516,7.230725579628908,0.7613196227696083,1.2817768335549735
0.0793651150458503,0.0207532699969332,0.9999894763826268,7.470275572519372,0.7846330380465126,1.2727652362476836
0.0850340518348397,0.0206361553403284,0.9999894542592808,7.699053898052201,0.8056691778687727,1.263905608863961
0.090702988623829,0.0205206799570742,0.9999894800676477,7.9176653748382,0.8246504933857571,1.2551842861882634
0.0963719254128183,0.0204067001304697,0.9999895457819304,8.126638512021653,0.841777705690352,1.2465892967848466
0.1020408622018076,0.0202940886618074,0.9999896444590072,8.326438663757036,0.8572319285405735,1.2381100773606637
0.1077097989907969,0.0201827322386137,0.9999897701177288,8.5174782263734,0.8711765837209791,1.229737244896104
0.1133787357797862,0.0200725293035182,0.999989917623284,8.700124689565682,0.8837591292987035,1.221462413147491
0.1190476725687756,0.0199633883147265,0.9999900825803818,8.874707091283552,0.8951126190511544,1.2132780435448065
0.1247166093577649,0.0198552263149905,0.9999902612367646,9.041521260365135,0.9053571095574908,1.2051773229969471
0.1303855461467542,0.0197479677454351,0.999990450397302,9.200834122287697,0.9146009298351788,1.1971540629358512
0.1360544829357435,0.0196415434551886,0.9999906473482488,9.35288726987096,0.9229418269493296,1.1892026152693056
0.1417234197247328,0.0195358898687438,0.9999908497909064,9.497899949679002,0.9304679997108674,1.1813178019049528
0.1473923565137221,0.0194309482812775,0.9999910557837968,9.636071578554848,0.9372590313959902,1.173494855250562
0.1530612933027114,0.0193266642584722,0.9999912636924198,9.767583878398025,0.943386731351411,1.165729367655877
0.1587302300917007,0.019222987122223,0.9999914721457076,9.892602697879694,0.948915894386214,1.1580172481876445
0.16439916688069,0.0191198695073488,0.9999916799983484,10.011279575248622,0.953904985981624,1.150354685456536
0.1700681036696793,0.0190172669773262,0.9999918862982256,10.123753085342518,0.958406760565418,1.142738115467653
0.1757370404586686,0.0189151376893369,0.9999920902583116,10.230150005435862,0.9624688193897538,1.1351641936634531
0.1814059772476579,0.0188134421007049,0.9999922912324128,10.330586327964216,0.9661341139124348,1.1276297704827298
0.1870749140366472,0.0187121427102187,0.9999924886942584,10.425168142991806,0.969441400005232,1.1201318698815972
0.1927438508256365,0.0186112038289643,0.99999268221947,10.513992409191149,0.9724256477928344,1.1126676703597744
0.1984127876146258,0.0185105913761986,0.9999928714700208,10.597147628829562,0.9751184114567392,1.1052344881133451
0.2040817244036152,0.0184102703852821,0.9999930561808446,10.67457295426558,0.9775481629149684,1.0978297619978683
0.2097506611926045,0.0183102026523255,0.9999932361482884,10.74592202635934,0.9797405929064484,1.0904510400364502
0.2154195979815938,0.0182103576084679,0.9999934112201608,10.81123861860128,0.9817188826641724,1.0830959672485891
0.2210885347705831,0.0181107060956601,0.9999935812871468,10.870587622020407,0.9835039490501956,1.0757622746092832
0.2267574715595724,0.0180112197790435,0.9999937462753936,10.924027081509456,0.9851146657448744,1.0684477689754013
0.2324264083485617,0.0179118710333957,0.9999939061401052,10.971608532752532,0.986568062829482,1.0611503238389737
0.238095345137551,0.0178126328374005,0.9999940608599855,11.013377294644274,0.9878795068728674,1.0538678707856308
0.2437642819265403,0.017713478674478,0.9999942104323548,11.049372721389355,0.9890628634266916,1.046598391551724
0.2494332187155296,0.0176143824390494,0.99999435486859,11.07962841778713,0.9901306436481514,1.039339910586237
0.2551021555045189,0.0175153183472203,0.999994494188901,11.104172420615336,0.991094136603355,1.0320904880338635
0.2607710922935082,0.0174162608509619,0.9999946284137768,11.123027348510025,0.9919635286610904,1.0248482130639716
0.2664400290824976,0.0173171845549354,0.9999947575462074,11.136210522283768,0.9927480112742648,1.0176111974768935
0.2721089658714869,0.0172180641351591,0.9999948815346944,11.143734057220277,0.9934558783794416,1.01037756952421
0.2777779026604762,0.0171188744148254,0.9999950002056724,11.145614690899246,0.994094614634216,1.003145467883674
0.2834468394494656,0.0170195913077081,0.999995113170056,11.141920528244963,0.994670975738802,0.9959130558784076
0.2891157762384549,0.0169201888094926,0.9999952197039812,11.132305474546245,0.995191062079581,0.9886788448237926
0.2947847130274442,0.0168206492300942,0.9999953186056534,11.116708859900518,0.9956603867639956,0.9814416250310212
0.3004536498164336,0.0167209557030871,0.999995408116552,11.095121129988804,0.9960839386851564,0.9742001929746712
0.3061225866054229,0.0166210910961056,0.9999954859622472,11.067529147806978,0.9964662405816604,0.9669533357149512
0.3117915233944122,0.0165210379734944,0.9999955495376294,11.033916157315002,0.9968114013152318,0.9596998283639364
0.3174604601834015,0.0164207785571695,0.9999955962382404,10.994261734975106,0.997123161078647,0.95243843147918
0.3231293969723909,0.016320294685429,0.9999956239135565,10.948541728325717,0.997404928241718,0.9451678883692296
0.3287983337613802,0.0162195677694345,0.99999563140531,10.896728180633428,0.9976598071330895,0.9378869222950496
0.3344672705503695,0.0161185787470596,0.9999956191254402,10.838789240686,0.997890617093918,0.9305942335504692
0.3401362073393589,0.0160173080337745,0.9999955896020588,10.774689056904393,0.9980999043136282,0.9232884964033032
0.3458051441283482,0.0159157354701931,0.999995547860471,10.70438765509749,0.9982899489324962,0.9159683558767326
0.3514740809173375,0.0158138402658598,0.9999955014223612,10.627840799289402,0.9984627704394956,0.9086324243477812
0.3571430177063269,0.0157116009387886,0.9999954596668328,10.544999835063114,0.998620134428378,0.901279277936394
0.3628119544953162,0.0156089952501909,0.9999954324137112,10.455811514754693,0.9987635633424606,0.8939074526547591
0.3684808912843055,0.0155060001337414,0.99999542792753,10.3602178035861,0.9988943530328211,0.8865154402821822
0.3741498280732949,0.0154025916186301,0.999995450970781,10.25815566543234,0.9990135958734588,0.8791016839261132
0.3798187648622842,0.0152987447455346,0.999995501717054,10.149556826378774,0.99912220992949,0.871664573224829
0.3854877016512735,0.0151944334745186,0.9999955760050558,10.03434751354934,0.9992209724244208,0.8642024391418337
0.3911566384402629,0.0150896305837169,0.9999956667400286,9.91244816592444,0.999310554744509,0.8567135482960994
0.3968255752292522,0.0149843075574988,0.9999957657352582,9.783773113098924,0.9993915557271223,0.8491960967656426
0.4024945120182415,0.0148784344626071,0.9999958652663872,9.648230217241585,0.9994645301885045,0.8416482032941729
0.4081634488072309,0.0147719798105337,0.9999959589638916,9.50572047295213,0.9995300105245662,0.8340679018211625
0.4138323855962202,0.0146649104041074,0.9999960420538576,9.356137559238546,0.9995885205028384,0.826453133244045
0.4195013223852095,0.0145571911659121,0.9999961111603234,9.199367337349925,0.99964058166707,0.8188017363067883
0.4251702591741989,0.0144487849457111,0.9999961639008138,9.035287287561918,0.9996867137564658,0.8111114374912666
0.4308391959631882,0.0143396523035048,0.9999961984333664,8.863765877095883,0.9997274310284372,0.8033798397660741
0.4365081327521775,0.0142297512641612,0.9999962130278104,8.684661850078138,0.9997632363868229,0.7956044100211082
0.4421770695411668,0.0141190370387098,0.9999962056700874,8.49782342876069,0.999794614901863,0.7877824649844094
0.4478460063301562,0.0140074617063188,0.9999961736674144,8.303087413098003,0.9998220278421583,0.7799111553793061
0.4535149431191455,0.013894973849633,0.9999961131918028,8.100278163153424,0.9998459078677252,0.7719874480330936
0.4591838799081348,0.0137815181344402,0.9999960186629872,7.889206445613057,0.9998666556420732,0.7640081055912415
0.4648528166971242,0.0136670348224324,0.9999958818058866,7.669668121780838,0.999884637839476,0.7559696634205066
0.4705217534861135,0.0135514592029761,0.9999956900795296,7.441442649625256,0.9999001863418504,0.7478684031966045
0.4761906902751028,0.0134347209260441,0.9999954238645437,7.204291366483282,0.9999135983062356,0.7397003225623053
0.4818596270640922,0.0133167432134596,0.9999950510495916,6.9579555115444265,0.9999251366899492,0.7314611001033865
0.4875285638530815,0.0131974419188301,0.9999945156753748,6.7021539377548445,0.9999350306661456,0.7231460547139712
0.4931975006420708,0.0130767243972625,0.9999937113122644,6.436580450634417,0.9999434749673738,0.7147500981975019
0.4988664374310602,0.0129544881329612,0.9999924083089043,6.1609006957531545,0.9999506260124024,0.70626767965874
0.5045353742200495,0.0128306190543204,0.9999900037457096,5.874748495969188,0.9999565885828394,0.6976927198637308
0.5102043110090387,0.012704989439246,0.9999842445461584,5.577721513852188,0.999961368943642,0.6890185332501491
0.515873247798028,0.0125774552760106,0.9999533094999432,5.26937618268085,0.9999646517221976,0.6802377346380114
0.5215421845870173,0.0124482405343564,1.9220802458027675e-05,4.965393085361163,0.9999630077505186,0.6713421273174532
0.5272111213760066,0.0123149954616349,4.026413975323744e-06,4.548441962209192,0.8111413999527742,0.6623738140460765
0.5328800581649958,0.0121795441814954,1.453410673676154e-06,4.056754202789981,0.6579728834193134,0.6534233353239877
0.5385489949539851,0.0120420286275219,6.416210967034128e-07,3.4647803927103773,0.5337273216794828,0.6445883095923598
0.5442179317429744,0.0119037579237345,3.283057277883685e-07,2.775634586851073,0.4329434068499566,0.6360298610605053
0.5498868685319637,0.0117690840189012,1.9224511686602666e-07,2.061741875840072,0.3511908738207862,0.6280041754522167
0.555555805320953,0.0116477249927506,1.2650196487245458e-07,1.4601248052867375,0.2848759819991672,0.6209285724990796
0.5612247421099422,0.0115550701353946,9.16591627860546e-08,1.0397155255090984,0.231083591409254,0.6156431022282621
0.5668936788989315,0.0115057419067382,4.918616485176908e-07,0.6964877732086392,0.1874490324978883,0.6134877978614629
0.5678914087766088,0.0115014091154362,4.737144755379026e-07,0.6303847118365898,0.1806705917062158,0.6134877978614623
0.5688891386542861,0.0114987214437843,4.5628768661201803e-07,0.5908983920486148,0.1741372826595981,0.6134884960176483
0.5698868685319635,0.0114973183244444,4.396377904011884e-07,0.5666202254676097,0.1678402405529036,0.6135103791198961
0.5708845984096408,0.0114970559766882,4.238032285953968e-07,0.5515789984796938,0.161770921165761,0.6135695141115712
0.5718823282873181,0.0114985333017186,4.089661097581493e-07,0.5493254519382655,0.1559210892684284,0.6136890122777358
0.5728800581649954,0.0115024411457275,3.958182528078434e-07,0.5546871265022019,0.1502828074527926,0.6139457797332436
0.5738777880426728,0.0115107205901645,3.851413853831882e-07,0.5474378440257304,0.1448484253805193,0.6145872564721871
0.5748755179203501,0.0115266739033883,3.769493105449576e-07,0.5352259086073616,0.139610569404845,0.6158146597620187
0.5758732477980274,0.0115507055450642,3.7076472366038617e-07,0.5239909604772629,0.1345621325366607,0.6176263780274875
0.5768709776757047,0.0115823657590731,3.661711680947461e-07,0.5149121905666681,0.1296962647834674,0.6199830863761725
0.577868707553382,0.0116211064555885,3.628665161491214e-07,0.5079882582952744,0.1250063638576697,0.6228445489485848
0.5788664374310594,0.0116664070945248,3.606349126976384e-07,0.5029418095660186,0.1204860662228251,0.6261741127887896
0.5798641673087367,0.0117177959135244,3.593210819385514e-07,0.4994550284195359,0.1161292384626768,0.6299389890806767
0.580861897186414,0.0117748496249611,3.588122851441647e-07,0.497235831383999,0.1119299689613852,0.6341098471351396
0.5818596270640913,0.011837188263108,3.5902607358472664e-07,0.4960340791657814,0.1078825598839775,0.6386603264619564
0.5828573569417687,0.0119044693551706,3.599019515034432e-07,0.4956418149354194,0.1039815194463714,0.6435665929939806
0.583855086819446,0.0119763825575163,3.6139563779055893e-07,0.4958885704516292,0.100221554464639,0.648806962227687
0.5848528166971233,0.0120526450292678,3.63475067353388e-07,0.4966355951004017,0.0965975631735095,0.6543615864899368
0.5858505465748006,0.0121329975444451,3.6611757259060265e-07,0.4977703617276705,0.0931046283044349,0.6602121975338364
0.586848276452478,0.0122172012616078,3.6930787712261373e-07,0.4992017733938491,0.0897380104138753,0.666341895130664
0.5878460063301553,0.0123050350521462,3.730366568015197e-07,0.5008561415227536,0.0864931414527854,0.6727349733147802
0.5888437362078326,0.0123962932929371,3.772995026274529e-07,0.5026738764417603,0.0833656185685979,0.6793767772448241
0.5898414660855099,0.0124907840406673,3.820961724995706e-07,0.5046067917694901,0.0803511981313122,0.686253584889044
0.5908391959631872,0.0125883275179867,3.874300535990553e-07,0.5066159204280383,0.0774457899755939,0.6933525088197331
0.5918369258408646,0.0126887548536221,3.933077807822626e-07,0.5086697497190864,0.0746454518510809,0.7006614142984442
0.5928346557185419,0.0127919070290114,3.997389725281155e-07,0.5107427964405123,0.0719463840733715,0.7081688505668893
0.5938323855962192,0.0128976339927934,4.067360572130438e-07,0.5128144565535558,0.0693449243684434,0.7158639928529319
0.5948301154738965,0.0130057939117479,4.143141703881983e-07,0.5148680759938641,0.0668375429035097,0.7237365930811197
0.5958278453515738,0.01311625253273,4.224911093672693e-07,0.5168901994607389,0.0644208374975728,0.7317769376641974
0.5968255752292512,0.0132288826349841,4.3128733550704606e-07,0.518869962464615,0.0620915290051808,0.739975811063911
0.5978233051069285,0.0133435635561507,4.407260175561869e-07,0.5207985987724123,0.059846456867123,0.7483244640608009
0.5988210349846058,0.0134601807784688,4.5083311168933524e-07,0.5226690409138742,0.0576825748220296,0.7568145858754951
0.5998187648622831,0.0135786255642469,4.616374755623658e-07,0.5244755958383468,0.0555969467730583,0.7654382794477459
0.6008164947399605,0.0136987946317661,4.7317101508143277e-07,0.5262136813498441,0.0535867428040605,0.774188039311794
0.6018142246176378,0.0138205898644649,4.854688636894236e-07,0.527879611774195,0.0516492353398213,0.7830567316137005
0.6028119544953151,0.0139439180476208,4.985695949231919e-07,0.5294704235690443,0.0497817954451665,0.7920375759029479
0.6038096843729924,0.0140686906278504,5.125154698474611e-07,0.5309837333912049,0.0479818892579139,0.8011241284008558
0.6048074142506698,0.0141948234916464,5.273527217764205e-07,0.5324176225789011,0.0462470745508312,0.8103102665052768
0.6058051441283471,0.0143222367598949,5.431318814926223e-07,0.5337705431624603,0.0445749974179351,0.8195901743372311
0.6068028740060244,0.0144508545959052,5.59908147000146e-07,0.53504124144457,0.0429633890806384,0.828958329172591
0.6078006038837017,0.014580605024962,5.777418027378809e-07,0.5362286959366537,0.0414100628094106,0.8384094886323205
0.608798333761379,0.0147114197637933,5.966986941614216e-07,0.5373320670380695,0.0399129109567779,0.8479386785294001
0.6097960636390564,0.0148432340586649,6.168507647123346e-07,0.5383506563289051,0.0384699020976373,0.8575411812905542
0.6107937935167337,0.0149759865310605,6.382766634687713e-07,0.5392838737383131,0.0370790782730064,0.8672125248870264
0.611791523394411,0.0151096190301133,6.610624332542098e-07,0.5401312111670147,0.0357385523334709,0.8769484722217195
0.6127892532720883,0.0152440764911209,6.853022907218751e-07,0.5408922213995389,0.0344465053787281,0.8867450109305379
0.6137869831497657,0.0153793067996053,7.110995119914246e-07,0.541566501350592,0.0332011842897523,0.8965983435642253
0.614784713027443,0.0155152606604891,7.385674398654635e-07,0.5421536788600616,0.0320008993502396,0.9065048781237668
0.6157824429051203,0.0156518914720411,7.678306315869579e-07,0.5426534023900141,0.0308440219541042,0.9164612189278316
0.6167801727827976,0.0157891552043156,7.99026169627389e-07,0.543065333090621,0.0297289823959233,0.9264641577950112
0.6177779026604749,0.015927010281861,8.323051622604347e-07,0.5433891387950389,0.0286542677413328,0.9365106655269764
0.6187756325381523,0.0160654174705147,8.678344658546389e-07,0.5436244895797825,0.0276184197744929,0.9465978836813072
0.6197733624158296,0.0162043397681372,9.05798667135915e-07,0.5437710545900738,0.0266200330198415,0.9567231166247784
0.6207710922935069,0.0163437422991597,9.464023714134718e-07,0.5438284998816477,0.0256577528354609,0.9668838238594168
0.6217688221711842,0.0164835922128413,9.898728522983642e-07,0.5437964870734298,0.0247302735754769,0.9770776126147936
0.6227665520488616,0.0166238585851445,1.036463130246268e-06,0.5436746726411287,0.0238363368190087,0.987302230700855
0.6237642819265389,0.0167645123237287,1.0864555598655882e-06,0.5434627019132446,0.0229747296632767,0.9975555596161636
0.6247620118042162,0.0169055260692985,1.1401659904062615e-06,0.54316013283023,0.0221442830785679,1.0078356077614152
0.6257597416818935,0.0170468740979901,1.1979486544583012e-06,0.5427664846982474,0.0213438703228421,1.0181405030697377
0.6267574715595708,0.0171885322559959,1.2602020186032058e-06,0.5422813944178296,0.0205724054138476,1.0284684874190435
0.6277552014372482,0.0173304778777089,1.3273756797948989e-06,0.5417045000072057,0.0198288416567033,1.0388179112824447
0.6287529313149255,0.0174726897075773,1.3999785612755523e-06,0.5410354370276461,0.0191121702249769,1.0491872280536003
0.6297506611926028,0.0176151478253243,1.4785887170383797e-06,0.5402738396145326,0.0184214187933733,1.0595749885932138
0.6307483910702801,0.0177578335742366,1.5638651225184611e-06,0.5394193415238417,0.0177556502202247,1.0699798359993682
0.6317461209479575,0.0179007294924562,1.6565619335651302e-06,0.5384715771680313,0.0171139612780522,1.0804005005969275
0.6327438508256348,0.018043819247204,1.7575458337540067e-06,0.5374301826210726,0.0164954814305507,1.0908357951410672
0.6337415807033121,0.0181870875718666,1.867817274103112e-06,0.5362947965771404,0.0158993716544301,1.101284610229858
0.6347393105809894,0.0183305507625067,1.988536656940829e-06,0.5354839347240115,0.0153248233046305,1.1117459099206628
0.6357370404586667,0.0184742504552858,2.121056852474343e-06,0.5357494827357007,0.0147710570215218,1.1222187275450028
0.6367347703363441,0.0186181755494822,2.266963899606573e-06,0.5371096211736825,0.0142373216788002,1.1327021617163766
0.6377325002140214,0.0187623144305829,2.428128386530342e-06,0.539567253070866,0.0137228933709022,1.143195372525461
0.6387302300916987,0.0189066560118488,2.606770913710141e-06,0.5431249416441397,0.0132270744388978,1.1536975779170011
0.639727959969376,0.0190511896958047,2.8055463370877237e-06,0.5477849405770572,0.012749192533976,1.164208050242633
